,ECG
0,33344
1,33600
2,33664
3,33408
4,33216
5,33280
6,33472
7,33792
8,33984
9,33856
10,33600
11,33536
12,33600
13,33856
14,34112
15,34432
16,34304
17,34048
18,33920
19,34176
20,34368
21,34048
22,33536
23,33472
24,33856
25,34240
26,34432
27,34368
28,34240
29,34240
30,34624
31,35008
32,35136
33,34880
34,34752
35,34880
36,34688
37,34048
38,33600
39,33408
40,33408
41,33408
42,33280
43,32960
44,32896
45,32896
46,32960
47,33152
48,33536
49,33728
50,33728
51,33536
52,33280
53,33216
54,33216
55,33344
56,33472
57,33408
58,33216
59,32960
60,32896
61,33216
62,33920
63,35008
64,36864
65,39488
66,42432
67,45184
68,46592
69,45696
70,42112
71,37376
72,32960
73,29888
74,28672
75,28608
76,29312
77,30208
78,30784
79,31552
80,32192
81,32512
82,32832
83,33088
84,33408
85,33664
86,33344
87,33024
88,32896
89,33024
90,33216
91,33408
92,33664
93,33856
94,33984
95,34240
96,34368
97,34496
98,34496
99,34432
100,34432
101,34624
102,34880
103,35072
104,35200
105,35328
106,35456
107,35200
108,34816
109,34688
110,34752
111,34816
112,34752
113,34816
114,34944
115,34944
116,35072
117,35008
118,34944
119,35072
120,35136
121,35136
122,35072
123,34688
124,34304
125,34112
126,34112
127,33856
128,33408
129,33088
130,32768
131,32576
132,32576
133,32640
134,32576
135,32576
136,32704
137,32960
138,33024
139,33152
140,33536
141,33664
142,33344
143,33024
144,32960
145,33088
146,33280
147,33600
148,33856
149,33856
150,33664
151,33472
152,33408
153,33664
154,33920
155,33984
156,33984
157,34112
158,34176
159,34176
160,34112
161,33920
162,33728
163,33536
164,33600
165,33728
166,33856
167,33920
168,33920
169,33984
170,34112
171,34176
172,34176
173,34048
174,33920
175,33984
176,34368
177,35072
178,35328
179,34944
180,34560
181,34432
182,34496
183,34496
184,34496
185,34496
186,34240
187,34048
188,34048
189,34112
190,34176
191,34112
192,33984
193,33728
194,33344
195,32832
196,32640
197,32704
198,32960
199,33088
200,33088
201,33216
202,33472
203,33536
204,33664
205,33856
206,33920
207,33920
208,33728
209,33664
210,33536
211,33408
212,33472
213,34240
214,36032
215,38848
216,41856
217,44480
218,46208
219,46144
220,43328
221,38848
222,34048
223,30784
224,28864
225,28480
226,29248
227,30272
228,31040
229,31680
230,32256
231,32896
232,33472
233,33536
234,33024
235,32576
236,32384
237,32640
238,33088
239,33408
240,33472
241,33472
242,33664
243,33920
244,34112
245,34112
246,34240
247,34496
248,34688
249,34752
250,34624
251,34752
252,34880
253,34944
254,35008
255,34880
256,34752
257,34688
258,34816
259,35072
260,35392
261,35520
262,35520
263,35520
264,35392
265,35328
266,35392
267,35456
268,35456
269,35392
270,35328
271,35136
272,35008
273,34112
274,33728
275,33536
276,33536
277,33664
278,33600
279,33344
280,33024
281,32896
282,32576
283,32320
284,32128
285,32128
286,32320
287,32320
288,32768
289,33088
290,33472
291,33536
292,33216
293,33152
294,33536
295,33728
296,33664
297,33472
298,33408
299,33408
300,33408
301,33472
302,33472
303,33728
304,33792
305,33792
306,33792
307,33856
308,33856
309,33920
310,33792
311,34048
312,34560
313,34432
314,33920
315,33664
316,33664
317,33920
318,34176
319,34048
320,33856
321,33984
322,34432
323,34816
324,34816
325,34496
326,34176
327,34112
328,34304
329,34624
330,34816
331,34752
332,34496
333,34240
334,34112
335,33984
336,33792
337,33664
338,33728
339,33984
340,33984
341,33600
342,33280
343,32960
344,32768
345,32768
346,32896
347,32960
348,33088
349,33280
350,33408
351,33472
352,33600
353,33664
354,33600
355,33472
356,33216
357,32960
358,32960
359,33472
360,34752
361,36672
362,39040
363,42112
364,45056
365,46848
366,46336
367,43136
368,38528
369,34048
370,30784
371,28992
372,28416
373,28800
374,29696
375,29760
376,31104
377,31680
378,32128
379,32448
380,32704
381,32896
382,33152
383,33344
384,33472
385,33728
386,33856
387,33728
388,33664
389,33728
390,33984
391,34304
392,34496
393,34368
394,34112
395,33856
396,33984
397,34176
398,34176
399,34176
400,34240
401,34496
402,34752
403,34752
404,34816
405,34944
406,35136
407,35200
408,35328
409,35520
410,35712
411,35712
412,35712
413,35776
414,35520
415,35200
416,35200
417,35200
418,34880
419,34368
420,34048
421,33792
422,33472
423,33216
424,33088
425,33024
426,32896
427,32896
428,32832
429,32832
430,32768
431,32640
432,32576
433,32576
434,32704
435,33088
436,33472
437,33472
438,33088
439,32960
440,33088
441,33216
442,33088
443,32896
444,32832
445,33024
446,33344
447,33344
448,33280
449,33344
450,33408
451,33536
452,33664
453,33856
454,33920
455,33920
456,33856
457,34048
458,34432
459,34688
460,34432
461,34048
462,33984
463,34112
464,33920
465,33536
466,33536
467,33728
468,33920
469,34112
470,34176
471,34176
472,34176
473,34240
474,34560
475,34752
476,35008
477,35200
478,35072
479,34688
480,34432
481,34304
482,34112
483,33920
484,33728
485,33536
486,33472
487,33152
488,32832
489,32576
490,32448
491,32512
492,32832
493,33088
494,33216
495,33216
496,33152
497,33088
498,33280
499,33600
500,33856
501,33920
502,33536
503,33024
504,32896
505,33472
506,34816
507,36544
508,38720
509,41472
510,44544
511,46720
512,46592
513,43520
514,38784
515,33984
516,30272
517,28480
518,28224
519,28800
520,29696
521,30464
522,31104
523,31680
524,32192
525,32512
526,32768
527,32832
528,32960
529,33088
530,33152
531,33152
532,33152
533,33280
534,33472
535,33664
536,33856
537,33920
538,33920
539,33920
540,34048
541,34240
542,34432
543,34624
544,34944
545,35136
546,34880
547,34496
548,34560
549,35072
550,35392
551,35200
552,34816
553,34624
554,34688
555,34816
556,34944
557,34944
558,35136
559,35456
560,35456
561,35136
562,34880
563,35008
564,35136
565,35008
566,34752
567,34688
568,34496
569,33856
570,33280
571,32896
572,32640
573,32512
574,32576
575,32512
576,32576
577,32768
578,33024
579,33024
580,32960
581,32960
582,33024
583,32960
584,32832
585,32832
586,32960
587,33216
588,33408
589,33280
590,33344
591,33664
592,33728
593,33472
594,33536
595,33600
596,33600
597,33536
598,33664
599,33792
600,33856
601,33664
602,33728
603,33856
604,33984
605,33920
606,33920
607,33984
608,34240
609,34624
610,34752
611,34496
612,34112
613,33856
614,34112
615,34368
616,34240
617,34176
618,34240
619,34240
620,34176
621,34304
622,34496
623,34752
624,34816
625,34816
626,34624
627,34560
628,34752
629,34816
630,34624
631,34368
632,33728
633,33280
634,33216
635,33280
636,33152
637,32704
638,32512
639,32576
640,32704
641,32960
642,33152
643,33344
644,33472
645,33600
646,33728
647,33856
648,33984
649,33984
650,33664
651,33216
652,33344
653,34176
654,35776
655,37888
656,40448
657,43264
658,45760
659,46848
660,45568
661,41472
662,36352
663,31616
664,28736
665,27584
666,27776
667,28736
668,29888
669,30976
670,32000
671,32640
672,32896
673,33024
674,33472
675,33856
676,33600
677,33408
678,33408
679,33280
680,33344
681,33664
682,34048
683,33984
684,33664
685,33536
686,33536
687,33856
688,34304
689,34560
690,34496
691,34560
692,35264
693,35776
694,35328
695,34816
696,34560
697,34496
698,34688
699,35072
700,35264
701,35328
702,35584
703,35712
704,35776
705,35584
706,35200
707,34944
708,34880
709,35072
710,35392
711,35520
712,35456
713,35072
714,34560
715,34048
716,33856
717,33600
718,33344
719,33216
720,33216
721,32960
722,32704
723,32512
724,32448
725,32448
726,32512
727,32704
728,32960
729,33088
730,33152
731,33152
732,32960
733,32960
734,33152
735,33344
736,33408
737,33344
738,33216
739,33344
740,33472
741,33536
742,33536
743,33536
744,33728
745,34112
746,34176
747,34112
748,34112
749,34304
750,34304
751,34112
752,33856
753,33536
754,33472
755,33472
756,33600
757,33856
758,33920
759,33920
760,33920
761,34048
762,34368
763,34752
764,34944
765,35008
766,34944
767,34816
768,34752
769,34752
770,34880
771,35008
772,34880
773,34368
774,33792
775,33536
776,33408
777,33408
778,33472
779,33408
780,33088
781,32896
782,32896
783,33024
784,33088
785,33216
786,33408
787,33664
788,33728
789,33664
790,33664
791,33792
792,33984
793,33856
794,33536
795,33408
796,33216
797,32896
798,32768
799,33472
800,34816
801,36544
802,38976
803,41920
804,44928
805,46720
806,46272
807,43008
808,38336
809,33792
810,30464
811,28800
812,28544
813,29312
814,30592
815,31872
816,32384
817,32320
818,32256
819,32448
820,32704
821,32640
822,32512
823,32512
824,32768
825,33024
826,33344
827,33472
828,33536
829,33664
830,33920
831,34176
832,34432
833,34624
834,34624
835,34624
836,34816
837,35072
838,35072
839,34944
840,34880
841,35008
842,34944
843,34688
844,34496
845,34432
846,34624
847,34880
848,35136
849,35264
850,35264
851,35200
852,35264
853,35328
854,35328
855,35264
856,35264
857,35456
858,35520
859,35136
860,34752
861,34432
862,34240
863,33920
864,33600
865,33408
866,33024
867,32576
868,32320
869,32256
870,32192
871,32128
872,32128
873,32256
874,32640
875,32896
876,32960
877,33024
878,33088
879,33152
880,33536
881,33984
882,34176
883,34048
884,33856
885,33600
886,33408
887,33472
888,33344
889,33216
890,33280
891,33536
892,33536
893,33408
894,33408
895,33600
896,33856
897,33920
898,33856
899,33792
900,33792
901,33856
902,33920
903,34048
904,34304
905,34624
906,34496
907,33920
908,33792
909,34176
910,34432
911,34432
912,34496
913,34496
914,34560
915,34624
916,34880
917,35072
918,34944
919,34880
920,34624
921,34240
922,33792
923,33600
924,33600
925,33600
926,33344
927,33088
928,32896
929,33024
930,33216
931,33344
932,33600
933,33728
934,33664
935,33536
936,33408
937,33344
938,33280
939,33088
940,33088
941,33216
942,33664
943,33536
944,32896
945,32448
946,32640
947,33792
948,35712
949,38016
950,40960
951,44224
952,46656
953,47104
954,44800
955,40320
956,35392
957,31360
958,29120
959,28416
960,28800
961,29568
962,30144
963,30784
964,31488
965,32064
966,32320
967,32512
968,32768
969,33152
970,33600
971,33920
972,33984
973,33792
974,33664
975,33728
976,33856
977,33920
978,34048
979,34240
980,34432
981,34368
982,34432
983,34752
984,34880
985,34752
986,34496
987,34368
988,34304
989,34432
990,34624
991,34816
992,35008
993,35072
994,35136
995,35200
996,35264
997,35392
998,35520
999,35648
1000,35648
1001,35456
1002,35456
1003,35328
1004,34816
1005,34368
1006,34176
1007,34112
1008,34048
1009,33920
1010,33920
1011,34048
1012,33920
1013,33472
1014,33024
1015,32960
1016,33152
1017,33216
1018,32960
1019,32576
1020,32576
1021,32704
1022,32768
1023,32640
1024,32640
1025,32768
1026,32960
1027,33152
1028,32960
1029,32832
1030,32896
1031,33024
1032,33152
1033,33344
1034,33536
1035,33920
1036,34240
1037,34240
1038,33920
1039,33856
1040,33920
1041,33920
1042,33792
1043,33792
1044,33984
1045,34112
1046,34112
1047,33728
1048,33472
1049,33408
1050,33408
1051,33472
1052,33600
1053,33664
1054,33600
1055,33536
1056,33600
1057,33664
1058,33856
1059,34304
1060,34752
1061,35072
1062,35136
1063,35136
1064,34944
1065,34816
1066,34816
1067,34816
1068,34752
1069,34688
1070,34560
1071,34240
1072,34048
1073,33856
1074,33600
1075,33216
1076,32896
1077,32768
1078,32832
1079,33152
1080,33408
1081,33536
1082,33344
1083,33216
1084,33280
1085,33664
1086,33984
1087,33920
1088,33728
1089,33472
1090,33344
1091,33472
1092,33664
1093,33536
1094,33152
1095,32832
1096,32960
1097,33664
1098,35072
1099,36928
1100,39424
1101,42368
1102,45184
1103,46656
1104,45632
1105,41728
1106,36864
1107,32576
1108,29888
1109,28864
1110,28992
1111,29696
1112,30528
1113,31296
1114,31744
1115,31936
1116,32192
1117,32640
1118,33088
1119,33408
1120,33344
1121,33280
1122,33152
1123,33152
1124,33408
1125,33728
1126,33728
1127,33536
1128,33408
1129,33472
1130,33536
1131,33728
1132,33984
1133,34240
1134,34432
1135,34624
1136,34880
1137,35008
1138,34944
1139,34816
1140,35008
1141,35648
1142,36032
1143,36160
1144,35712
1145,35072
1146,34752
1147,34880
1148,34944
1149,34816
1150,34688
1151,34688
1152,34944
1153,35072
1154,35008
1155,34816
1156,34560
1157,34560
1158,34624
1159,34624
1160,34432
1161,34048
1162,33600
1163,33408
1164,33344
1165,33344
1166,33152
1167,33024
1168,32832
1169,32768
1170,32896
1171,32832
1172,32576
1173,32448
1174,32320
1175,32320
1176,32448
1177,32640
1178,32896
1179,33152
1180,33344
1181,33536
1182,33664
1183,33856
1184,34176
1185,34432
1186,34560
1187,34432
1188,34368
1189,33984
1190,33344
1191,33024
1192,33024
1193,33216
1194,33408
1195,33408
1196,33472
1197,33536
1198,33600
1199,33664
1200,33728
1201,33856
1202,34048
1203,34304
1204,34624
1205,34688
1206,34496
1207,34048
1208,33792
1209,33920
1210,34240
1211,34240
1212,34176
1213,34176
1214,34240
1215,34368
1216,34560
1217,34688
1218,34624
1219,34496
1220,34496
1221,34688
1222,34624
1223,34176
1224,33792
1225,33600
1226,33600
1227,33344
1228,33024
1229,32960
1230,33152
1231,33152
1232,33216
1233,33344
1234,33344
1235,33216
1236,33216
1237,33344
1238,33344
1239,33152
1240,33088
1241,33216
1242,33472
1243,33408
1244,33024
1245,32896
1246,33408
1247,34432
1248,35904
1249,37952
1250,40640
1251,43648
1252,45952
1253,46592
1254,44480
1255,40384
1256,35776
1257,31936
1258,29376
1259,28288
1260,28416
1261,29248
1262,30464
1263,31360
1264,32128
1265,32576
1266,32768
1267,32768
1268,32704
1269,32832
1270,33024
1271,33216
1272,33408
1273,33664
1274,33920
1275,34048
1276,33920
1277,34048
1278,34176
1279,34176
1280,34176
1281,34176
1282,34368
1283,34752
1284,35072
1285,34944
1286,34688
1287,34496
1288,34560
1289,34560
1290,34624
1291,34688
1292,34752
1293,34816
1294,35008
1295,35200
1296,35328
1297,35520
1298,35520
1299,35456
1300,35584
1301,35520
1302,35200
1303,34880
1304,34752
1305,34688
1306,34752
1307,34560
1308,34304
1309,34048
1310,33792
1311,33728
1312,33728
1313,33664
1314,33408
1315,33024
1316,32640
1317,32384
1318,32448
1319,32576
1320,32640
1321,32832
1322,33280
1323,33472
1324,33280
1325,32960
1326,32896
1327,32960
1328,32896
1329,32960
1330,33216
1331,33344
1332,33472
1333,33600
1334,33664
1335,33664
1336,33600
1337,33600
1338,33792
1339,33920
1340,33856
1341,33792
1342,33792
1343,33920
1344,33984
1345,34048
1346,33984
1347,33984
1348,34176
1349,34048
1350,33792
1351,33728
1352,33728
1353,33728
1354,33728
1355,33600
1356,33536
1357,33408
1358,33472
1359,33856
1360,34304
1361,34624
1362,34752
1363,34816
1364,34688
1365,34688
1366,34880
1367,35008
1368,34944
1369,34752
1370,34496
1371,34240
1372,33984
1373,33856
1374,33664
1375,33408
1376,33280
1377,33152
1378,33088
1379,33088
1380,33216
1381,33472
1382,33728
1383,33728
1384,33536
1385,33280
1386,33152
1387,33280
1388,33408
1389,33408
1390,33408
1391,33472
1392,33536
1393,33536
1394,33408
1395,33152
1396,32960
1397,33216
1398,34112
1399,35776
1400,38016
1401,40832
1402,43968
1403,46336
1404,46720
1405,44416
1406,40064
1407,35200
1408,31232
1409,28992
1410,28096
1411,28416
1412,29504
1413,30784
1414,31552
1415,32000
1416,32512
1417,32896
1418,32960
1419,32960
1420,33088
1421,33152
1422,33280
1423,33344
1424,33472
1425,33600
1426,33664
1427,33856
1428,34112
1429,34112
1430,33984
1431,33920
1432,33728
1433,33728
1434,33984
1435,34496
1436,34752
1437,34816
1438,34752
1439,34624
1440,34560
1441,34752
1442,35264
1443,35520
1444,35456
1445,35264
1446,35264
1447,35264
1448,34944
1449,34816
1450,34880
1451,34880
1452,34880
1453,35008
1454,35072
1455,35072
1456,35008
1457,34816
1458,34560
1459,34496
1460,34624
1461,34432
1462,34176
1463,33984
1464,33408
1465,32768
1466,32384
1467,32320
1468,32448
1469,32640
1470,32768
1471,32768
1472,32768
1473,32768
1474,32768
1475,32896
1476,32960
1477,32896
1478,32896
1479,33024
1480,33216
1481,33408
1482,33536
1483,33728
1484,33856
1485,33856
1486,33856
1487,33856
1488,33984
1489,33920
1490,33664
1491,33472
1492,33664
1493,33856
1494,33792
1495,33536
1496,33408
1497,33536
1498,33728
1499,33792
1500,33856
1501,33920
1502,33920
1503,34048
1504,34048
1505,34048
1506,34048
1507,33920
1508,33664
1509,33536
1510,33536
1511,33664
1512,34112
1513,34560
1514,34880
1515,34752
1516,34496
1517,34432
1518,34624
1519,34816
1520,34816
1521,34560
1522,34304
1523,34112
1524,33984
1525,34048
1526,33984
1527,33856
1528,33728
1529,33536
1530,33472
1531,33408
1532,33216
1533,33024
1534,33024
1535,33280
1536,33344
1537,33280
1538,33344
1539,33472
1540,33472
1541,33408
1542,33344
1543,33344
1544,33472
1545,33664
1546,33664
1547,33536
1548,33536
1549,33792
1550,34752
1551,36352
1552,38336
1553,41088
1554,44096
1555,46080
1556,45696
1557,42816
1558,38336
1559,33856
1560,30400
1561,28608
1562,28288
1563,28992
1564,30144
1565,31168
1566,31936
1567,32576
1568,32896
1569,33024
1570,33024
1571,33152
1572,33216
1573,33152
1574,33088
1575,33216
1576,33600
1577,33792
1578,33792
1579,33664
1580,33536
1581,33536
1582,33792
1583,34048
1584,34368
1585,34752
1586,34688
1587,34624
1588,34688
1589,34688
1590,34560
1591,34624
1592,34880
1593,35008
1594,35008
1595,35008
1596,34880
1597,35136
1598,35328
1599,35136
1600,35008
1601,34816
1602,34624
1603,34624
1604,34816
1605,35072
1606,35264
1607,35392
1608,35456
1609,35456
1610,35072
1611,34432
1612,34112
1613,33920
1614,33664
1615,33536
1616,33408
1617,32960
1618,32576
1619,32320
1620,32256
1621,32448
1622,32640
1623,32832
1624,32960
1625,33024
1626,32960
1627,32832
1628,32832
1629,32960
1630,33024
1631,33088
1632,33152
1633,33344
1634,33472
1635,33536
1636,33664
1637,33664
1638,33792
1639,33792
1640,33664
1641,33600
1642,33728
1643,33920
1644,33984
1645,34048
1646,33984
1647,33920
1648,33920
1649,34112
1650,34304
1651,34368
1652,34176
1653,33856
1654,33792
1655,33792
1656,33600
1657,33536
1658,33600
1659,33472
1660,33408
1661,33344
1662,33536
1663,34048
1664,34496
1665,34688
1666,34560
1667,34496
1668,34688
1669,35008
1670,35200
1671,35200
1672,35264
1673,35136
1674,34752
1675,34176
1676,33728
1677,33536
1678,33472
1679,33664
1680,33600
1681,33152
1682,32960
1683,32960
1684,33216
1685,33408
1686,33536
1687,33408
1688,33152
1689,33024
1690,33024
1691,33024
1692,33152
1693,33472
1694,33856
1695,33984
1696,33792
1697,33664
1698,33728
1699,33536
1700,33088
1701,33024
1702,33920
1703,35776
1704,38528
1705,42624
1706,44608
1707,46464
1708,46144
1709,43072
1710,38400
1711,33600
1712,29952
1713,28480
1714,28288
1715,28928
1716,29824
1717,30592
1718,31488
1719,32192
1720,32640
1721,32768
1722,32960
1723,33152
1724,33344
1725,33600
1726,33792
1727,33664
1728,33600
1729,33728
1730,33984
1731,34112
1732,34112
1733,34112
1734,34240
1735,34304
1736,34176
1737,34048
1738,34176
1739,34368
1740,34240
1741,34176
1742,34368
1743,34560
1744,34880
1745,35072
1746,35072
1747,35072
1748,35200
1749,35520
1750,35840
1751,35840
1752,35776
1753,35584
1754,35328
1755,35200
1756,35072
1757,34944
1758,34752
1759,34688
1760,34688
1761,34688
1762,34560
1763,34432
1764,34112
1765,33792
1766,33600
1767,33344
1768,33280
1769,33344
1770,33536
1771,33600
1772,33216
1773,32640
1774,32384
1775,32320
1776,32320
1777,32576
1778,32832
1779,32832
1780,32768
1781,32768
1782,32896
1783,33088
1784,33344
1785,33472
1786,33536
1787,33472
1788,33536
1789,33600
1790,33664
1791,33664
1792,33792
1793,33984
1794,33920
1795,33792
1796,33664
1797,33664
1798,33920
1799,34368
1800,34432
1801,33920
1802,33472
1803,33344
1804,33408
1805,33472
1806,33536
1807,33600
1808,33664
1809,33664
1810,33792
1811,33728
1812,33728
1813,34048
1814,34560
1815,34880
1816,34880
1817,34688
1818,34560
1819,34624
1820,34816
1821,34688
1822,34880
1823,35328
1824,35264
1825,34240
1826,33920
1827,33664
1828,33600
1829,33536
1830,33344
1831,33088
1832,32896
1833,32768
1834,32768
1835,32896
1836,33024
1837,33344
1838,33536
1839,33536
1840,33472
1841,33536
1842,33728
1843,34048
1844,34048
1845,33792
1846,33536
1847,33600
1848,33472
1849,32896
1850,32512
1851,32896
1852,33920
1853,35520
1854,37696
1855,40768
1856,43584
1857,45952
1858,46400
1859,43968
1860,39552
1861,34816
1862,30784
1863,29056
1864,28416
1865,28992
1866,30016
1867,30912
1868,31616
1869,32192
1870,32384
1871,32384
1872,32512
1873,32768
1874,33152
1875,33344
1876,33472
1877,33472
1878,33472
1879,33408
1880,33472
1881,33664
1882,33728
1883,33728
1884,33792
1885,33856
1886,33920
1887,34048
1888,34112
1889,34240
1890,34368
1891,34560
1892,34688
1893,34752
1894,34880
1895,35072
1896,35520
1897,35904
1898,35776
1899,35200
1900,35008
1901,35008
1902,34816
1903,34624
1904,34624
1905,34624
1906,34816
1907,34880
1908,34688
1909,34560
1910,34624
1911,34560
1912,34560
1913,34560
1914,34496
1915,34048
1916,33792
1917,33664
1918,33536
1919,33408
1920,33280
1921,33152
1922,32960
1923,32704
1924,32704
1925,32832
1926,32832
1927,32704
1928,32640
1929,32640
1930,32768
1931,32704
1932,32704
1933,32896
1934,33152
1935,33344
1936,33408
1937,33408
1938,33472
1939,33600
1940,33664
1941,33728
1942,33728
1943,33856
1944,33984
1945,34368
1946,34368
1947,34432
1948,34112
1949,33792
1950,33536
1951,33152
1952,33024
1953,33088
1954,33216
1955,33536
1956,33984
1957,34368
1958,34560
1959,34688
1960,34560
1961,34432
1962,34496
1963,34688
1964,34944
1965,35008
1966,34816
1967,34496
1968,34176
1969,33984
1970,33920
1971,33920
1972,33984
1973,33920
1974,33536
1975,32960
1976,32768
1977,32832
1978,33152
1979,33408
1980,33280
1981,32960
1982,32832
1983,32832
1984,32896
1985,32960
1986,33152
1987,33280
1988,33344
1989,33472
1990,33536
1991,33472
1992,33344
1993,33088
1994,33152
1995,34048
1996,35776
1997,38464
1998,41536
1999,44800
2000,46848
2001,46784
2002,43392
2003,38720
2004,34048
2005,30592
2006,28736
2007,28288
2008,28608
2009,29312
2010,30144
2011,30912
2012,31744
2013,32256
2014,32704
2015,33024
2016,33088
2017,33216
2018,33536
2019,33728
2020,33856
2021,33920
2022,33920
2023,33728
2024,33792
2025,34112
2026,34304
2027,34048
2028,34048
2029,34496
2030,34688
2031,34304
2032,33920
2033,33856
2034,33920
2035,34112
2036,34304
2037,34560
2038,34816
2039,35008
2040,35072
2041,35136
2042,35328
2043,35584
2044,35904
2045,35968
2046,35456
2047,34944
2048,34560
2049,34368
2050,34368
2051,34560
2052,34880
2053,35136
2054,34944
2055,34432
2056,33984
2057,33664
2058,33536
2059,33472
2060,33408
2061,33280
2062,33152
2063,33088
2064,33024
2065,33216
2066,33600
2067,33856
2068,33536
2069,33280
2070,33024
2071,32832
2072,32768
2073,32896
2074,32896
2075,32896
2076,33024
2077,33280
2078,33280
2079,33600
2080,33728
2081,33728
2082,33792
2083,33856
2084,34048
2085,34304
2086,34368
2087,34304
2088,34240
2089,34176
2090,34304
2091,34496
2092,34240
2093,33856
2094,33536
2095,33536
2096,33728
2097,33984
2098,34304
2099,34688
2100,35072
2101,35136
2102,35072
2103,34944
2104,34880
2105,35008
2106,35200
2107,35072
2108,34752
2109,34560
2110,34176
2111,33728
2112,33344
2113,32960
2114,32640
2115,32448
2116,32512
2117,32512
2118,33344
2119,33472
2120,33408
2121,33280
2122,33280
2123,33344
2124,33472
2125,33408
2126,33408
2127,33536
2128,33600
2129,33408
2130,33216
2131,32960
2132,32896
2133,32448
2134,32640
2135,33536
2136,35264
2137,37760
2138,40832
2139,44160
2140,46656
2141,47232
2142,44928
2143,40320
2144,35328
2145,31296
2146,28992
2147,28288
2148,28608
2149,29568
2150,30400
2151,30976
2152,31488
2153,32064
2154,32640
2155,32960
2156,33088
2157,33152
2158,33280
2159,33536
2160,33792
2161,33664
2162,33536
2163,33344
2164,33600
2165,33984
2166,34112
2167,34112
2168,34112
2169,33984
2170,33984
2171,34176
2172,34496
2173,34816
2174,34816
2175,34688
2176,34880
2177,34816
2178,35264
2179,35200
2180,34944
2181,34816
2182,34688
2183,34688
2184,34880
2185,35200
2186,35456
2187,35456
2188,35136
2189,34752
2190,34624
2191,34624
2192,34624
2193,34752
2194,35072
2195,35072
2196,34624
2197,34176
2198,34048
2199,33984
2200,33664
2201,33280
2202,33088
2203,33088
2204,33280
2205,33216
2206,32960
2207,32768
2208,32832
2209,32896
2210,32896
2211,33024
2212,33280
2213,33408
2214,33280
2215,33216
2216,33408
2217,33600
2218,33472
2219,33280
2220,33344
2221,33536
2222,33536
2223,34112
2224,34112
2225,33792
2226,33728
2227,33728
2228,33792
2229,33856
2230,34048
2231,34240
2232,34240
2233,33984
2234,33856
2235,34048
2236,34368
2237,34624
2238,34688
2239,34752
2240,34752
2241,34752
2242,34880
2243,35008
2244,34944
2245,34816
2246,34752
2247,34688
2248,34432
2249,34048
2250,33856
2251,33920
2252,33920
2253,33472
2254,32896
2255,32640
2256,32704
2257,32832
2258,32896
2259,33024
2260,33088
2261,33088
2262,33088
2263,33152
2264,33344
2265,33536
2266,33792
2267,34112
2268,34176
2269,33856
2270,33472
2271,33216
2272,33088
2273,33152
2274,33344
2275,34304
2276,36096
2277,38784
2278,42048
2279,45120
2280,46976
2281,46464
2282,42944
2283,37888
2284,33152
2285,29952
2286,28480
2287,28672
2288,29568
2289,30336
2290,30912
2291,31424
2292,31872
2293,32320
2294,32704
2295,32896
2296,33152
2297,33216
2298,33280
2299,33280
2300,33152
2301,33216
2302,33408
2303,33600
2304,33792
2305,33984
2306,34048
2307,34176
2308,34496
2309,34496
2310,34560
2311,34688
2312,34688
2313,34688
2314,34624
2315,34368
2316,34176
2317,34304
2318,34432
2319,34432
2320,34496
2321,34560
2322,34816
2323,35008
2324,35200
2325,35328
2326,35520
2327,35456
2328,35200
2329,34880
2330,34816
2331,34944
2332,35008
2333,34880
2334,34816
2335,34688
2336,34368
2337,34112
2338,33792
2339,33664
2340,33472
2341,33152
2342,32960
2343,32832
2344,32768
2345,32704
2346,32640
2347,32768
2348,32960
2349,33216
2350,33216
2351,33216
2352,33216
2353,33280
2354,33408
2355,33472
2356,33280
2357,33216
2358,33408
2359,33664
2360,33728
2361,33664
2362,33600
2363,33472
2364,33472
2365,33664
2366,33920
2367,34112
2368,34048
2369,33920
2370,33920
2371,33984
2372,33984
2373,33984
2374,34304
2375,34688
2376,34816
2377,34880
2378,35136
2379,35392
2380,35264
2381,34688
2382,34304
2383,34240
2384,34304
2385,34368
2386,34304
2387,33984
2388,33728
2389,33664
2390,33664
2391,33600
2392,33280
2393,33152
2394,33280
2395,33280
2396,33152
2397,33152
2398,33280
2399,33280
2400,33216
2401,33088
2402,33152
2403,33280
2404,33408
2405,33280
2406,33152
2407,33024
2408,33024
2409,32960
2410,32896
2411,32832
2412,33024
2413,33728
2414,35200
2415,37504
2416,40704
2417,43904
2418,46528
2419,47296
2420,45248
2421,40704
2422,35520
2423,31360
2424,28928
2425,28160
2426,28544
2427,29440
2428,30528
2429,31616
2430,32448
2431,32704
2432,32768
2433,32832
2434,32896
2435,32896
2436,32960
2437,33088
2438,33280
2439,33408
2440,33408
2441,33536
2442,33856
2443,34112
2444,34368
2445,34432
2446,34304
2447,34176
2448,34176
2449,34176
2450,34560
2451,34816
2452,34752
2453,34624
2454,34560
2455,34624
2456,35008
2457,35200
2458,35136
2459,34880
2460,34688
2461,34688
2462,34880
2463,35200
2464,35264
2465,35136
2466,34880
2467,34688
2468,34624
2469,34560
2470,34560
2471,34624
2472,34624
2473,34496
2474,34368
2475,34240
2476,34048
2477,33856
2478,33664
2479,33536
2480,33408
2481,33280
2482,33088
2483,32960
2484,32832
2485,32832
2486,32768
2487,32768
2488,32832
2489,32832
2490,32896
2491,33024
2492,33088
2493,33216
2494,33280
2495,33472
2496,33728
2497,33920
2498,33920
2499,33792
2500,33664
2501,33664
2502,33856
2503,34176
2504,34368
2505,34048
2506,33536
2507,33280
2508,33216
2509,33280
2510,33344
2511,33536
2512,33792
2513,34048
2514,34304
2515,34560
2516,34624
2517,34560
2518,34496
2519,34624
2520,34816
2521,34944
2522,34880
2523,34816
2524,34816
2525,34944
2526,35072
2527,34816
2528,34048
2529,33408
2530,32832
2531,32512
2532,32320
2533,32384
2534,32512
2535,32576
2536,32768
2537,32960
2538,33088
2539,33088
2540,33088
2541,33088
2542,33152
2543,33216
2544,33280
2545,33344
2546,33408
2547,33344
2548,33152
2549,32896
2550,32832
2551,33536
2552,35072
2553,37376
2554,40384
2555,43712
2556,46400
2557,47168
2558,44800
2559,40192
2560,35200
2561,31168
2562,28864
2563,28224
2564,28608
2565,29696
2566,31104
2567,32128
2568,32320
2569,32448
2570,32576
2571,32512
2572,32384
2573,32192
2574,32128
2575,32256
2576,32448
2577,32768
2578,33152
2579,33344
2580,33536
2581,33728
2582,33792
2583,33856
2584,33920
2585,34048
2586,34112
2587,34176
2588,34432
2589,34688
2590,34880
2591,35200
2592,35456
2593,35520
2594,35264
2595,34432
2596,33984
2597,33856
2598,34048
2599,34240
2600,34368
2601,34560
2602,34752
2603,34688
2604,34624
2605,34624
2606,34624
2607,34752
2608,35072
2609,35456
2610,35136
2611,34688
2612,34496
2613,34240
2614,33856
2615,33664
2616,33280
2617,32640
2618,32256
2619,32256
2620,32320
2621,32320
2622,32384
2623,32448
2624,32640
2625,32896
2626,33152
2627,33344
2628,33472
2629,33536
2630,33408
2631,33152
2632,33216
2633,33472
2634,33728
2635,33728
2636,33408
2637,33024
2638,32960
2639,33088
2640,33472
2641,33728
2642,33664
2643,33536
2644,33472
2645,33472
2646,33600
2647,33856
2648,34176
2649,34560
2650,34816
2651,34944
2652,35008
2653,35136
2654,35264
2655,35136
2656,34880
2657,34688
2658,34688
2659,34880
2660,34816
2661,34368
2662,33984
2663,33856
2664,33536
2665,33152
2666,32896
2667,32704
2668,32512
2669,32576
2670,32640
2671,32704
2672,32832
2673,32960
2674,33024
2675,33216
2676,33408
2677,33664
2678,33984
2679,34112
2680,33792
2681,33280
2682,32832
2683,32512
2684,32640
2685,32960
2686,33984
2687,36160
2688,38464
2689,41664
2690,44672
2691,46656
2692,46336
2693,42944
2694,37888
2695,32832
2696,29888
2697,28544
2698,28544
2699,29056
2700,29760
2701,30592
2702,31296
2703,31872
2704,32320
2705,32896
2706,33344
2707,33472
2708,33472
2709,33408
2710,33472
2711,33472
2712,33408
2713,33344
2714,33472
2715,33664
2716,33920
2717,34176
2718,34304
2719,34240
2720,34240
2721,34304
2722,34432
2723,34560
2724,34496
2725,34240
2726,34176
2727,34368
2728,34560
2729,34752
2730,34944
2731,35136
2732,35264
2733,35264
2734,35072
2735,35008
2736,35136
2737,35264
2738,35136
2739,34880
2740,34688
2741,34496
2742,34368
2743,34496
2744,34560
2745,34560
2746,34688
2747,34688
2748,34624
2749,34112
2750,33536
2751,33024
2752,32832
2753,32768
2754,32768
2755,32704
2756,32704
2757,32768
2758,32896
2759,33216
2760,33344
2761,33280
2762,33216
2763,33344
2764,33472
2765,33408
2766,33216
2767,33216
2768,33408
2769,33600
2770,33728
2771,33728
2772,33792
2773,33856
2774,33920
2775,34048
2776,34176
2777,34176
2778,34176
2779,34240
2780,34240
2781,34176
2782,34048
2783,33920
2784,33856
2785,34176
2786,34560
2787,34688
2788,34752
2789,34816
2790,34816
2791,34624
2792,34496
2793,34560
2794,34624
2795,34624
2796,34560
2797,34496
2798,34368
2799,34176
2800,33984
2801,33856
2802,33728
2803,33536
2804,33344
2805,33216
2806,33152
2807,33088
2808,33088
2809,33152
2810,33344
2811,33664
2812,33920
2813,33856
2814,33536
2815,33152
2816,33024
2817,33088
2818,33024
2819,32960
2820,32704
2821,32512
2822,32704
2823,33472
2824,35072
2825,37120
2826,39744
2827,42816
2828,45696
2829,47168
2830,46080
2831,42304
2832,37312
2833,32768
2834,29824
2835,28672
2836,28736
2837,29184
2838,29760
2839,30720
2840,31680
2841,32192
2842,32384
2843,32512
2844,32768
2845,33088
2846,33024
2847,33024
2848,33088
2849,33216
2850,33344
2851,33536
2852,33728
2853,33792
2854,33984
2855,34112
2856,34240
2857,34368
2858,34368
2859,34560
2860,34816
2861,35072
2862,34880
2863,34496
2864,34496
2865,34624
2866,34688
2867,34624
2868,34624
2869,34624
2870,34688
2871,34880
2872,35072
2873,35072
2874,35136
2875,35136
2876,35072
2877,34944
2878,34880
2879,34816
2880,34816
2881,34944
2882,34944
2883,35008
2884,35008
2885,34880
2886,34624
2887,34048
2888,33472
2889,33088
2890,32896
2891,32768
2892,32704
2893,32704
2894,32704
2895,32768
2896,32896
2897,33024
2898,33088
2899,33088
2900,33088
2901,33152
2902,33216
2903,33344
2904,33472
2905,33728
2906,33920
2907,34176
2908,34368
2909,34304
2910,34176
2911,33984
2912,33984
2913,33792
2914,33536
2915,33344
2916,33344
2917,33408
2918,33472
2919,33472
2920,33600
2921,33664
2922,33792
2923,33920
2924,34112
2925,34432
2926,34816
2927,35200
2928,35456
2929,35456
2930,35520
2931,35648
2932,35584
2933,35008
2934,34304
2935,33856
2936,33792
2937,33792
2938,33664
2939,33472
2940,33344
2941,33216
2942,33024
2943,32832
2944,32704
2945,32768
2946,32896
2947,33216
2948,33536
2949,33664
2950,33472
2951,33344
2952,33280
2953,33344
2954,33536
2955,33408
2956,33216
2957,33280
2958,33344
2959,33024
2960,32640
2961,32576
2962,33216
2963,34816
2964,37120
2965,39936
2966,43072
2967,46080
2968,47232
2969,45952
2970,41984
2971,37056
2972,32256
2973,29888
2974,28608
2975,28480
2976,29120
2977,30016
2978,30976
2979,31936
2980,32704
2981,32832
2982,32704
2983,32576
2984,32704
2985,32960
2986,33088
2987,33024
2988,33024
2989,33152
2990,33344
2991,33472
2992,33600
2993,33792
2994,34048
2995,34176
2996,34304
2997,34368
2998,34432
2999,34496
3000,34560
3001,34624
3002,34816
3003,34880
3004,35008
3005,35072
3006,35136
3007,35200
3008,35264
3009,35328
3010,35392
3011,35328
3012,35136
3013,35072
3014,35008
3015,35072
3016,35200
3017,35520
3018,35520
3019,35200
3020,34880
3021,34624
3022,34496
3023,34624
3024,34880
3025,34624
3026,33920
3027,33280
3028,32832
3029,32512
3030,32320
3031,32256
3032,32256
3033,32448
3034,32576
3035,32832
3036,32960
3037,32960
3038,32960
3039,33024
3040,33152
3041,33344
3042,33600
3043,33536
3044,33536
3045,33728
3046,33792
3047,33728
3048,33728
3049,33536
3050,33216
3051,33152
3052,33216
3053,33344
3054,33536
3055,33792
3056,33920
3057,33920
3058,33984
3059,33984
3060,33984
3061,34048
3062,34240
3063,34368
3064,34560
3065,34624
3066,34432
3067,34368
3068,34368
3069,34368
3070,34304
3071,34176
3072,34240
3073,34368
3074,34432
3075,34496
3076,34496
3077,34560
3078,34496
3079,34368
3080,34176
3081,33984
3082,33792
3083,33536
3084,33152
3085,32832
3086,32768
3087,32768
3088,32768
3089,32768
3090,32896
3091,33024
3092,33088
3093,33216
3094,33344
3095,33536
3096,33792
3097,33920
3098,33664
3099,33152
3100,32704
3101,32704
3102,33280
3103,34496
3104,36288
3105,38784
3106,41792
3107,44928
3108,46784
3109,46784
3110,43712
3111,38912
3112,34176
3113,30592
3114,28736
3115,28288
3116,28736
3117,29696
3118,30592
3119,31488
3120,32000
3121,32320
3122,32512
3123,32640
3124,32896
3125,33088
3126,33216
3127,33152
3128,33088
3129,33216
3130,33408
3131,33536
3132,33600
3133,33664
3134,33664
3135,33792
3136,34048
3137,33984
3138,33920
3139,34112
3140,34304
3141,34624
3142,34880
3143,34816
3144,34560
3145,34496
3146,34496
3147,34624
3148,34816
3149,35008
3150,35072
3151,35072
3152,35008
3153,35008
3154,35008
3155,35008
3156,35008
3157,35008
3158,34944
3159,34944
3160,35072
3161,35200
3162,35328
3163,35072
3164,34560
3165,33984
3166,33472
3167,33088
3168,32896
3169,32832
3170,32704
3171,32640
3172,32704
3173,32832
3174,32832
3175,32832
3176,32768
3177,32704
3178,32640
3179,32704
3180,32896
3181,33024
3182,33088
3183,33088
3184,33280
3185,33536
3186,33536
3187,33280
3188,33152
3189,33152
3190,33344
3191,33664
3192,34048
3193,33984
3194,33664
3195,33472
3196,33600
3197,33920
3198,33984
3199,33792
3200,33664
3201,33600
3202,33600
3203,33600
3204,33856
3205,34112
3206,34240
3207,34432
3208,34496
3209,34496
3210,34496
3211,34560
3212,34624
3213,34688
3214,34944
3215,35200
3216,35136
3217,34880
3218,34432
3219,34048
3220,33856
3221,33664
3222,33408
3223,33088
3224,32768
3225,32640
3226,32768
3227,33088
3228,33280
3229,33216
3230,33088
3231,33024
3232,33088
3233,33152
3234,33216
3235,33344
3236,33472
3237,33664
3238,33664
3239,33536
3240,33344
3241,33088
3242,33088
3243,33536
3244,34816
3245,36992
3246,39936
3247,43136
3248,45696
3249,46656
3250,45312
3251,41472
3252,36736
3253,32448
3254,29440
3255,28096
3256,28032
3257,28864
3258,29888
3259,30976
3260,31680
3261,32128
3262,32448
3263,32640
3264,32640
3265,32768
3266,32960
3267,33216
3268,33344
3269,33344
3270,33408
3271,33664
3272,33984
3273,34176
3274,34048
3275,33984
3276,33856
3277,33856
3278,33984
3279,34112
3280,34240
3281,34240
3282,34304
3283,34304
3284,34368
3285,34624
3286,34752
3287,34816
3288,34752
3289,34752
3290,34880
3291,35008
3292,35200
3293,35392
3294,35520
3295,35712
3296,35648
3297,35456
3298,35392
3299,35456
3300,35264
3301,34752
3302,34368
3303,34048
3304,33792
3305,33664
3306,33472
3307,33344
3308,33216
3309,33216
3310,33152
3311,33088
3312,33024
3313,32960
3314,32960
3315,32960
3316,32960
3317,33088
3318,33152
3319,33152
3320,33280
3321,33344
3322,33216
3323,33088
3324,33152
3325,33152
3326,33088
3327,33024
3328,33088
3329,33216
3330,33344
3331,33472
3332,33664
3333,33792
3334,33792
3335,33920
3336,33984
3337,34048
3338,34176
3339,34368
3340,34368
3341,34304
3342,34240
3343,34240
3344,34176
3345,34048
3346,33856
3347,33920
3348,34048
3349,34176
3350,34176
3351,34048
3352,34112
3353,34432
3354,34624
3355,34496
3356,34304
3357,34304
3358,34496
3359,34624
3360,34688
3361,34752
3362,34816
3363,34880
3364,34752
3365,34304
3366,33856
3367,33600
3368,33536
3369,33472
3370,33344
3371,33280
3372,33216
3373,33344
3374,33344
3375,33280
3376,33216
3377,33216
3378,33216
3379,33408
3380,33536
3381,33664
3382,33536
3383,33664
3384,33856
3385,33600
3386,33152
3387,33088
3388,33408
3389,34496
3390,36352
3391,38848
3392,42048
3393,44736
3394,46464
3395,46144
3396,43136
3397,38400
3398,33600
3399,30016
3400,28480
3401,28416
3402,29120
3403,29888
3404,30656
3405,31424
3406,32256
3407,32768
3408,32896
3409,32896
3410,32896
3411,33024
3412,33216
3413,33344
3414,33344
3415,33408
3416,33472
3417,33472
3418,33600
3419,33792
3420,34112
3421,34368
3422,34432
3423,34368
3424,34624
3425,35072
3426,35200
3427,34688
3428,34432
3429,34688
3430,34880
3431,34624
3432,34368
3433,34368
3434,34624
3435,35008
3436,35264
3437,35392
3438,35264
3439,35264
3440,35328
3441,35264
3442,35264
3443,35264
3444,35264
3445,35200
3446,35136
3447,35008
3448,34752
3449,34560
3450,34496
3451,34368
3452,34048
3453,33664
3454,33408
3455,33280
3456,33280
3457,33280
3458,33152
3459,33024
3460,32768
3461,32640
3462,32704
3463,32896
3464,32832
3465,32832
3466,32768
3467,32768
3468,32896
3469,33088
3470,33216
3471,33344
3472,33472
3473,33600
3474,33600
3475,33600
3476,33664
3477,33664
3478,33664
3479,33664
3480,33792
3481,33984
3482,34112
3483,34048
3484,34048
3485,34112
3486,34240
3487,34240
3488,34176
3489,34048
3490,33920
3491,33728
3492,33600
3493,33600
3494,33600
3495,33600
3496,33728
3497,33984
3498,34048
3499,34240
3500,34432
3501,34432
3502,34368
3503,34432
3504,34560
3505,34624
3506,34560
3507,34560
3508,34752
3509,34880
3510,34816
3511,34560
3512,34432
3513,34304
3514,34112
3515,33856
3516,33600
3517,33408
3518,33280
3519,33280
3520,33344
3521,33280
3522,33280
3523,33344
3524,33344
3525,33408
3526,33536
3527,33600
3528,33600
3529,33408
3530,33408
3531,33472
3532,33536
3533,33472
3534,33344
3535,33152
3536,33152
3537,33408
3538,34496
3539,36352
3540,38976
3541,41984
3542,44928
3543,46592
3544,46336
3545,43328
3546,38656
3547,34048
3548,30528
3549,28544
3550,28096
3551,28608
3552,29632
3553,30656
3554,31360
3555,31936
3556,32384
3557,32704
3558,32960
3559,33216
3560,33408
3561,33600
3562,33728
3563,33792
3564,33920
3565,34112
3566,34176
3567,34112
3568,34048
3569,34048
3570,34048
3571,34304
3572,34304
3573,34048
3574,33856
3575,33920
3576,34112
3577,34368
3578,34496
3579,34688
3580,34880
3581,34944
3582,35072
3583,35200
3584,35392
3585,35648
3586,35712
3587,35584
3588,35456
3589,35456
3590,35584
3591,35776
3592,35712
3593,35456
3594,35200
3595,34816
3596,34624
3597,34496
3598,34496
3599,34368
3600,34176
3601,33984
3602,33856
3603,33600
3604,33216
3605,32896
3606,32640
3607,32576
3608,32640
3609,32896
3610,32960
3611,32832
3612,32576
3613,32512
3614,32640
3615,32896
3616,33024
3617,32960
3618,32960
3619,33024
3620,33280
3621,33472
3622,33536
3623,33472
3624,33408
3625,33408
3626,33472
3627,33664
3628,33920
3629,34176
3630,34368
3631,34304
3632,33984
3633,33728
3634,33536
3635,33536
3636,33600
3637,33792
3638,33792
3639,33856
3640,33920
3641,33856
3642,33856
3643,33920
3644,33856
3645,33856
3646,33792
3647,33728
3648,33728
3649,33984
3650,34240
3651,34432
3652,34496
3653,34496
3654,34624
3655,34752
3656,34880
3657,34944
3658,34880
3659,34688
3660,34432
3661,34368
3662,34368
3663,34368
3664,34368
3665,34112
3666,33600
3667,33216
3668,33024
3669,33088
3670,33216
3671,33152
3672,32832
3673,32768
3674,32768
3675,32832
3676,32896
3677,33088
3678,33280
3679,33472
3680,33472
3681,33472
3682,33536
3683,33536
3684,33408
3685,33216
3686,33472
3687,34432
3688,36096
3689,38336
3690,41280
3691,44480
3692,46720
3693,46720
3694,43648
3695,38848
3696,33984
3697,30464
3698,28608
3699,28160
3700,28672
3701,29632
3702,30528
3703,31360
3704,32000
3705,32320
3706,32576
3707,32896
3708,33088
3709,33152
3710,33152
3711,33152
3712,33152
3713,33152
3714,33280
3715,33792
3716,33856
3717,33792
3718,33920
3719,34048
3720,34240
3721,34368
3722,34240
3723,34176
3724,34112
3725,34176
3726,34368
3727,34560
3728,34624
3729,34816
3730,35136
3731,35264
3732,35072
3733,34944
3734,35008
3735,35072
3736,35136
3737,35072
3738,35072
3739,35264
3740,35520
3741,35584
3742,35392
3743,35264
3744,35136
3745,34752
3746,34560
3747,34368
3748,34176
3749,33984
3750,33792
3751,33536
3752,33408
3753,33472
3754,33472
3755,33216
3756,32768
3757,32384
3758,32320
3759,32576
3760,32704
3761,32640
3762,32640
3763,32640
3764,32512
3765,32512
3766,32512
3767,32576
3768,32768
3769,33088
3770,33344
3771,33344
3772,33344
3773,33728
3774,34048
3775,34048
3776,33792
3777,33472
3778,33344
3779,33408
3780,33600
3781,33600
3782,33664
3783,33600
3784,33536
3785,33536
3786,33664
3787,33728
3788,33856
3789,33984
3790,33984
3791,33920
3792,33984
3793,34304
3794,34496
3795,34304
3796,33856
3797,33536
3798,33216
3799,33088
3800,33280
3801,33600
3802,33920
3803,34240
3804,34432
3805,34880
3806,34944
3807,35008
3808,34880
3809,34752
3810,34688
3811,34816
3812,34816
3813,34432
3814,34240
3815,34240
3816,34048
3817,33856
3818,33600
3819,33216
3820,33024
3821,33024
3822,32896
3823,32896
3824,33024
3825,33088
3826,33024
3827,32960
3828,33088
3829,33216
3830,33280
3831,33408
3832,33472
3833,33472
3834,33408
3835,33216
3836,33344
3837,34048
3838,35200
3839,36736
3840,38720
3841,41216
3842,44032
3843,45824
3844,45888
3845,42944
3846,38080
3847,33280
3848,29760
3849,28096
3850,28224
3851,28864
3852,29952
3853,30784
3854,31424
3855,32128
3856,32832
3857,33280
3858,33280
3859,33088
3860,32960
3861,32960
3862,33152
3863,33344
3864,33600
3865,33792
3866,33792
3867,33728
3868,33664
3869,33728
3870,33792
3871,33920
3872,34176
3873,34560
3874,34816
3875,34816
3876,34752
3877,34880
3878,35008
3879,35008
3880,34688
3881,34560
3882,34624
3883,34944
3884,35200
3885,35136
3886,34944
3887,35008
3888,35200
3889,35840
3890,35840
3891,35648
3892,35328
3893,35072
3894,34688
3895,34624
3896,34432
3897,34304
3898,34304
3899,34304
3900,34240
3901,34176
3902,34112
3903,33600
3904,33280
3905,33152
3906,32896
3907,32640
3908,32576
3909,32896
3910,32832
3911,32896
3912,32704
3913,32640
3914,32640
3915,32640
3916,32832
3917,32832
3918,32832
3919,32960
3920,33152
3921,33280
3922,33408
3923,33408
3924,33408
3925,33344
3926,33536
3927,33792
3928,34112
3929,34176
3930,34176
3931,34176
3932,34176
3933,33984
3934,34048
3935,34304
3936,34240
3937,33792
3938,33728
3939,33536
3940,33536
3941,33664
3942,33920
3943,34112
3944,33984
3945,33728
3946,33600
3947,33536
3948,33728
3949,33920
3950,34048
3951,34112
3952,33792
3953,33472
3954,33408
3955,33536
3956,33984
3957,34496
3958,34752
3959,34816
3960,34816
3961,34816
3962,34816
3963,34944
3964,35008
3965,35008
3966,34816
3967,34368
3968,33920
3969,33728
3970,33792
3971,33728
3972,33600
3973,33344
3974,33216
3975,33216
3976,33280
3977,33280
3978,33408
3979,33664
3980,33792
3981,33664
3982,33408
3983,33280
3984,33536
3985,33792
3986,33792
3987,33536
3988,33280
3989,33152
3990,33024
3991,32896
3992,33024
3993,33792
3994,35328
3995,37568
3996,40448
3997,43328
3998,45504
3999,46208
4000,44352
4001,40256
4002,35520
4003,31552
4004,29120
4005,28160
4006,28480
4007,29440
4008,30528
4009,31488
4010,32128
4011,32704
4012,33152
4013,33408
4014,33280
4015,33152
4016,33088
4017,33280
4018,33792
4019,34048
4020,33920
4021,33664
4022,33472
4023,33536
4024,33728
4025,33984
4026,34304
4027,34496
4028,34432
4029,34432
4030,34432
4031,34560
4032,34688
4033,34880
4034,34944
4035,35008
4036,35200
4037,35392
4038,35712
4039,35840
4040,35904
4041,35776
4042,35392
4043,35072
4044,34944
4045,34944
4046,35136
4047,35328
4048,35328
4049,35200
4050,35072
4051,35008
4052,34880
4053,34816
4054,34688
4055,34496
4056,34240
4057,34048
4058,34112
4059,34240
4060,33920
4061,33280
4062,32768
4063,32512
4064,32448
4065,32512
4066,32704
4067,32832
4068,32832
4069,32768
4070,32640
4071,32768
4072,32896
4073,32960
4074,33024
4075,33152
4076,33216
4077,33152
4078,33152
4079,33152
4080,33216
4081,33408
4082,33600
4083,33664
4084,33792
4085,33920
4086,34112
4087,34368
4088,34432
4089,34240
4090,33984
4091,33728
4092,33664
4093,33728
4094,33920
4095,33984
4096,33984
4097,33728
4098,33536
4099,33344
4100,33472
4101,33792
4102,34112
4103,33856
4104,33600
4105,33664
4106,33920
4107,34048
4108,33984
4109,33856
4110,33984
4111,34368
4112,34560
4113,34688
4114,34688
4115,34624
4116,34688
4117,34752
4118,34752
4119,34752
4120,34752
4121,34560
4122,34432
4123,34240
4124,33792
4125,33536
4126,33600
4127,33728
4128,33472
4129,32960
4130,32640
4131,32576
4132,32768
4133,33024
4134,33216
4135,33344
4136,33408
4137,33536
4138,33728
4139,33664
4140,33664
4141,33600
4142,33536
4143,33344
4144,33088
4145,33088
4146,33536
4147,34688
4148,36544
4149,39040
4150,42048
4151,44928
4152,46400
4153,45440
4154,41792
4155,37056
4156,32768
4157,29760
4158,28352
4159,28416
4160,29440
4161,30528
4162,31232
4163,31744
4164,32128
4165,32640
4166,33088
4167,33408
4168,33408
4169,33280
4170,33088
4171,33088
4172,33280
4173,33664
4174,33984
4175,34112
4176,34048
4177,33856
4178,33792
4179,33920
4180,34048
4181,33984
4182,33984
4183,34112
4184,34368
4185,34624
4186,34752
4187,34816
4188,34752
4189,34752
4190,34816
4191,34944
4192,35200
4193,35456
4194,35456
4195,35264
4196,35072
4197,35008
4198,35264
4199,35520
4200,35456
4201,35328
4202,35136
4203,35008
4204,34880
4205,34752
4206,34688
4207,34752
4208,34560
4209,34240
4210,33920
4211,33792
4212,33664
4213,33408
4214,32960
4215,32576
4216,32448
4217,32512
4218,32704
4219,32768
4220,32768
4221,32640
4222,32576
4223,32704
4224,32832
4225,32832
4226,32960
4227,33280
4228,33280
4229,33024
4230,32832
4231,32832
4232,33024
4233,33216
4234,33408
4235,33664
4236,33664
4237,33600
4238,33728
4239,33920
4240,33856
4241,33728
4242,33792
4243,34048
4244,34176
4245,34112
4246,33984
4247,33792
4248,33600
4249,33472
4250,33408
4251,33344
4252,33408
4253,33472
4254,33600
4255,33728
4256,33792
4257,33792
4258,33728
4259,33792
4260,34240
4261,34560
4262,34496
4263,34432
4264,34368
4265,34304
4266,34176
4267,34304
4268,34560
4269,34624
4270,34560
4271,34432
4272,34304
4273,34240
4274,34304
4275,34176
4276,33856
4277,33344
4278,33024
4279,32896
4280,32896
4281,32960
4282,33088
4283,33216
4284,33344
4285,33408
4286,33408
4287,33408
4288,33472
4289,33536
4290,33600
4291,33536
4292,33472
4293,33280
4294,32896
4295,32704
4296,32768
4297,33216
4298,34368
4299,36160
4300,38528
4301,41536
4302,44480
4303,46272
4304,45888
4305,42688
4306,38016
4307,33408
4308,30016
4309,28352
4310,28032
4311,28736
4312,30080
4313,31104
4314,31680
4315,32128
4316,32512
4317,32768
4318,32768
4319,32704
4320,32960
4321,33408
4322,33472
4323,33472
4324,33536
4325,33536
4326,33408
4327,33472
4328,33664
4329,33728
4330,33664
4331,33664
4332,33920
4333,34176
4334,34368
4335,34432
4336,34432
4337,34496
4338,34560
4339,34752
4340,34944
4341,35136
4342,35456
4343,35776
4344,35520
4345,35200
4346,35072
4347,35200
4348,35328
4349,35264
4350,35072
4351,34816
4352,34752
4353,34688
4354,34624
4355,34560
4356,34496
4357,34496
4358,34496
4359,34432
4360,34368
4361,34176
4362,33920
4363,33728
4364,33600
4365,33472
4366,33280
4367,33088
4368,32896
4369,32768
4370,32832
4371,33024
4372,32960
4373,32832
4374,32640
4375,32448
4376,32384
4377,32384
4378,32576
4379,32896
4380,33344
4381,33472
4382,33280
4383,33088
4384,33088
4385,33216
4386,33408
4387,33600
4388,33728
4389,33920
4390,34112
4391,34304
4392,34240
4393,33920
4394,33664
4395,33664
4396,33792
4397,33920
4398,34048
4399,34112
4400,34176
4401,34560
4402,34752
4403,34368
4404,33664
4405,33280
4406,33408
4407,33536
4408,33600
4409,33600
4410,33728
4411,34048
4412,34496
4413,34688
4414,34688
4415,34624
4416,34688
4417,34688
4418,34752
4419,34752
4420,34816
4421,34816
4422,34688
4423,34560
4424,34432
4425,34368
4426,34432
4427,34304
4428,33856
4429,33472
4430,33024
4431,32704
4432,32576
4433,32640
4434,32896
4435,33216
4436,33408
4437,33472
4438,33344
4439,33344
4440,33472
4441,33536
4442,33536
4443,33536
4444,33408
4445,33280
4446,33280
4447,33792
4448,34688
4449,35840
4450,37568
4451,40128
4452,43008
4453,45312
4454,46016
4455,44416
4456,39936
4457,35456
4458,31424
4459,28928
4460,28096
4461,28544
4462,29504
4463,30592
4464,31552
4465,32064
4466,32320
4467,32576
4468,32896
4469,33344
4470,33600
4471,33536
4472,33536
4473,33536
4474,33600
4475,33536
4476,33600
4477,33664
4478,33792
4479,33984
4480,34304
4481,34368
4482,34304
4483,34304
4484,34496
4485,34624
4486,34624
4487,34560
4488,34496
4489,34560
4490,34688
4491,34944
4492,35008
4493,35072
4494,35200
4495,35200
4496,35264
4497,35456
4498,35520
4499,35456
4500,35328
4501,35328
4502,35392
4503,35392
4504,35264
4505,35136
4506,35072
4507,34944
4508,34816
4509,34560
4510,34240
4511,34048
4512,33856
4513,33664
4514,33408
4515,33280
4516,33216
4517,33088
4518,33088
4519,33152
4520,33280
4521,33216
4522,32960
4523,32768
4524,32768
4525,32896
4526,32960
4527,33024
4528,33088
4529,33280
4530,33472
4531,33280
4532,33088
4533,33088
4534,33408
4535,33792
4536,33984
4537,33728
4538,33408
4539,33344
4540,33600
4541,33984
4542,34304
4543,34304
4544,34176
4545,33984
4546,33920
4547,33920
4548,34112
4549,34048
4550,33856
4551,33728
4552,33792
4553,34048
4554,34176
4555,33984
4556,33728
4557,33600
4558,33472
4559,33536
4560,33728
4561,34048
4562,34624
4563,35136
4564,35264
4565,34944
4566,34624
4567,34432
4568,34304
4569,34176
4570,34112
4571,34176
4572,34176
4573,34112
4574,34112
4575,34240
4576,34496
4577,34304
4578,33728
4579,33344
4580,33216
4581,33216
4582,33344
4583,33472
4584,33408
4585,33344
4586,33344
4587,33216
4588,33088
4589,33152
4590,33280
4591,33408
4592,33536
4593,33728
4594,33728
4595,33472
4596,33088
4597,32896
4598,33408
4599,34624
4600,36544
4601,38720
4602,41664
4603,44544
4604,46336
4605,46208
4606,43392
4607,38848
4608,34112
4609,30528
4610,28608
4611,28096
4612,28736
4613,29824
4614,30976
4615,31872
4616,32448
4617,32768
4618,33024
4619,33024
4620,33152
4621,33280
4622,33472
4623,33664
4624,33856
4625,33984
4626,34176
4627,34176
4628,33984
4629,33920
4630,33920
4631,33856
4632,33920
4633,33920
4634,34112
4635,34304
4636,34560
4637,34752
4638,34880
4639,34880
4640,34944
4641,35008
4642,35136
4643,35264
4644,35392
4645,35328
4646,35328
4647,35328
4648,35392
4649,35520
4650,35584
4651,35520
4652,35456
4653,35264
4654,34944
4655,34880
4656,35008
4657,35392
4658,35584
4659,35008
4660,34304
4661,33920
4662,33664
4663,33472
4664,33344
4665,33152
4666,33088
4667,32960
4668,32832
4669,32768
4670,32704
4671,32640
4672,32704
4673,32896
4674,33088
4675,33280
4676,33280
4677,33152
4678,33216
4679,33408
4680,33408
4681,33216
4682,33152
4683,33152
4684,33152
4685,33216
4686,33344
4687,33472
4688,33600
4689,33664
4690,33792
4691,34176
4692,34688
4693,35136
4694,35200
4695,34432
4696,33344
4697,32768
4698,32704
4699,32768
4700,32960
4701,33152
4702,33472
4703,33600
4704,33664
4705,33664
4706,33600
4707,33536
4708,33536
4709,33856
4710,34432
4711,34880
4712,35008
4713,35136
4714,35200
4715,35072
4716,34560
4717,34048
4718,33920
4719,33856
4720,33856
4721,33856
4722,33920
4723,33984
4724,33984
4725,33856
4726,33728
4727,33472
4728,33216
4729,33216
4730,33536
4731,33856
4732,33792
4733,33536
4734,33216
4735,33024
4736,32832
4737,32704
4738,32576
4739,32640
4740,32704
4741,32960
4742,33152
4743,33280
4744,33344
4745,33408
4746,33728
4747,34304
4748,35392
4749,37184
4750,39872
4751,43072
4752,45760
4753,46720
4754,45184
4755,41088
4756,36160
4757,31808
4758,29440
4759,28160
4760,28032
4761,28800
4762,29760
4763,30784
4764,31680
4765,32448
4766,32832
4767,32960
4768,33024
4769,33216
4770,33408
4771,33600
4772,33472
4773,33408
4774,33408
4775,33408
4776,33536
4777,33664
4778,33728
4779,33792
4780,33920
4781,34048
4782,34176
4783,34240
4784,34368
4785,34752
4786,35200
4787,35328
4788,35200
4789,35072
4790,35008
4791,34880
4792,34688
4793,34560
4794,34624
4795,34688
4796,34816
4797,35008
4798,35200
4799,35264
4800,35136
4801,35072
4802,35328
4803,35776
4804,35584
4805,35136
4806,34880
4807,34816
4808,34496
4809,33920
4810,33408
4811,33280
4812,33280
4813,33152
4814,33024
4815,32896
4816,32896
4817,32832
4818,32896
4819,33088
4820,33152
4821,33088
4822,33024
4823,32960
4824,32960
4825,33024
4826,33152
4827,33280
4828,33216
4829,33152
4830,33088
4831,33216
4832,33408
4833,33600
4834,33664
4835,33536
4836,33472
4837,33600
4838,33728
4839,33600
4840,33664
4841,33856
4842,34048
4843,34048
4844,33984
4845,33984
4846,33984
4847,33920
4848,33792
4849,33728
4850,33728
4851,33920
4852,33920
4853,33728
4854,33600
4855,33856
4856,34304
4857,34624
4858,34752
4859,34560
4860,34368
4861,34432
4862,34688
4863,34880
4864,34816
4865,34624
4866,34496
4867,34496
4868,34432
4869,34304
4870,34240
4871,33792
4872,33408
4873,33152
4874,33152
4875,33280
4876,33344
4877,33280
4878,33280
4879,33216
4880,33152
4881,33088
4882,33344
4883,33728
4884,33792
4885,33536
4886,33344
4887,33408
4888,33664
4889,33792
4890,33344
4891,32832
4892,32768
4893,33408
4894,34880
4895,36672
4896,39360
4897,42432
4898,45120
4899,46400
4900,45312
4901,41664
4902,37120
4903,32704
4904,29760
4905,28544
4906,28416
4907,28992
4908,29824
4909,30656
4910,31488
4911,32192
4912,32896
4913,33472
4914,33600
4915,33344
4916,33216
4917,33216
4918,33280
4919,33472
4920,33600
4921,33728
4922,33856
4923,33920
4924,33920
4925,33920
4926,33856
4927,33920
4928,34048
4929,34368
4930,34688
4931,34944
4932,35008
4933,34816
4934,34624
4935,34496
4936,34624
4937,35008
4938,35328
4939,35520
4940,35392
4941,35264
4942,35072
4943,34944
4944,35008
4945,35008
4946,34944
4947,34880
4948,34880
4949,35072
4950,35328
4951,35392
4952,35136
4953,34816
4954,34752
4955,34688
4956,34432
4957,34176
4958,33920
4959,33728
4960,33408
4961,33152
4962,32896
4963,32768
4964,32640
4965,32576
4966,32640
4967,32640
4968,32704
4969,32832
4970,32960
4971,33216
4972,33664
4973,33920
4974,33664
4975,33408
4976,33280
4977,33472
4978,33728
4979,33920
4980,33984
4981,33920
4982,33792
4983,33856
4984,33728
4985,33600
4986,33600
4987,33728
4988,34048
4989,34240
4990,34112
4991,33920
4992,33856
4993,33728
4994,33792
4995,33856
4996,33984
4997,34112
4998,34112
4999,33920
5000,33664
5001,33664
5002,34048
5003,34496
5004,34752
5005,34752
5006,34688
5007,34560
5008,34368
5009,34368
5010,34496
5011,34560
5012,34496
5013,34496
5014,34496
5015,34368
5016,34176
5017,33984
5018,33792
5019,33664
5020,33408
5021,33152
5022,33088
5023,33472
5024,33920
5025,33792
5026,33344
5027,33088
5028,32960
5029,32896
5030,32896
5031,32960
5032,33024
5033,33216
5034,33280
5035,33408
5036,33472
5037,33600
5038,33536
5039,33344
5040,33408
5041,34304
5042,36224
5043,38144
5044,40768
5045,43584
5046,45888
5047,46592
5048,44160
5049,39552
5050,33984
5051,30720
5052,28736
5053,28032
5054,28544
5055,29632
5056,30656
5057,31488
5058,32128
5059,32704
5060,33024
5061,33024
5062,33088
5063,33152
5064,33152
5065,33088
5066,33216
5067,33408
5068,33664
5069,33984
5070,34176
5071,34240
5072,34432
5073,34496
5074,34240
5075,33920
5076,33664
5077,33792
5078,34176
5079,34432
5080,34560
5081,34496
5082,34432
5083,34496
5084,34560
5085,34752
5086,34944
5087,35072
5088,35136
5089,35136
5090,35200
5091,35264
5092,35456
5093,35520
5094,35392
5095,35264
5096,35008
5097,34816
5098,34688
5099,34496
5100,34368
5101,34304
5102,34240
5103,34112
5104,33984
5105,33856
5106,33728
5107,33536
5108,33344
5109,33216
5110,33408
5111,33472
5112,33024
5113,32704
5114,32384
5115,32448
5116,32832
5117,33152
5118,33152
5119,33088
5120,32896
5121,32832
5122,32832
5123,32960
5124,33024
5125,33152
5126,33216
5127,33344
5128,33664
5129,33920
5130,33984
5131,33920
5132,33792
5133,33728
5134,33728
5135,33728
5136,33728
5137,33792
5138,33920
5139,34048
5140,33920
5141,33728
5142,33600
5143,33472
5144,33472
5145,33792
5146,34240
5147,34368
5148,34368
5149,34304
5150,34176
5151,34176
5152,34368
5153,34624
5154,34688
5155,34688
5156,34560
5157,34432
5158,34304
5159,34112
5160,34048
5161,33920
5162,33856
5163,33792
5164,33472
5165,32960
5166,32768
5167,32704
5168,32896
5169,33216
5170,33344
5171,33216
5172,33216
5173,33152
5174,32960
5175,32960
5176,33088
5177,33152
5178,33152
5179,33152
5180,33152
5181,32960
5182,32768
5183,32960
5184,33600
5185,35008
5186,36928
5187,39616
5188,42752
5189,45632
5190,47040
5191,45760
5192,41664
5193,36480
5194,32256
5195,29504
5196,28416
5197,28352
5198,28864
5199,29440
5200,30336
5201,31104
5202,31808
5203,32320
5204,32576
5205,32896
5206,33088
5207,33216
5208,33216
5209,33216
5210,33344
5211,33600
5212,33856
5213,33920
5214,33856
5215,33984
5216,34112
5217,34048
5218,33920
5219,33792
5220,33984
5221,34176
5222,34240
5223,34304
5224,34368
5225,34432
5226,34560
5227,34560
5228,34560
5229,34624
5230,34752
5231,34880
5232,34944
5233,35008
5234,35136
5235,35200
5236,35072
5237,35008
5238,34944
5239,34880
5240,34880
5241,34752
5242,34560
5243,34240
5244,33984
5245,33856
5246,33792
5247,33728
5248,33664
5249,33600
5250,33600
5251,33600
5252,33472
5253,33216
5254,32896
5255,32896
5256,33088
5257,33344
5258,33472
5259,33216
5260,32896
5261,32832
5262,32960
5263,33024
5264,33152
5265,33152
5266,32896
5267,32704
5268,32704
5269,32896
5270,33152
5271,33472
5272,33792
5273,33984
5274,34048
5275,34176
5276,34368
5277,34496
5278,34240
5279,33984
5280,34048
5281,34176
5282,34304
5283,34176
5284,33856
5285,33664
5286,33600
5287,33536
5288,33472
5289,33472
5290,33728
5291,34048
5292,34432
5293,34752
5294,34752
5295,34560
5296,34496
5297,34688
5298,34880
5299,34816
5300,34752
5301,34688
5302,34752
5303,34752
5304,34496
5305,34048
5306,33600
5307,33344
5308,33280
5309,33216
5310,33216
5311,33408
5312,33344
5313,33024
5314,32832
5315,32960
5316,33152
5317,33216
5318,33280
5319,33344
5320,33408
5321,33472
5322,33600
5323,33664
5324,33408
5325,33088
5326,32896
5327,33088
5328,33792
5329,35328
5330,37440
5331,39936
5332,42624
5333,45120
5334,46528
5335,45696
5336,41984
5337,36864
5338,32128
5339,29120
5340,28160
5341,28160
5342,28736
5343,29632
5344,30528
5345,31360
5346,32064
5347,32576
5348,32960
5349,33216
5350,33408
5351,33536
5352,33600
5353,33600
5354,33536
5355,33472
5356,33728
5357,34112
5358,34304
5359,34176
5360,33984
5361,33920
5362,34112
5363,34176
5364,34112
5365,34048
5366,34112
5367,34304
5368,34432
5369,34560
5370,34624
5371,34688
5372,34816
5373,34816
5374,34880
5375,35008
5376,35008
5377,35008
5378,35200
5379,35392
5380,35648
5381,35520
5382,35072
5383,34624
5384,34496
5385,34624
5386,34752
5387,34560
5388,34304
5389,34112
5390,34112
5391,34240
5392,34048
5393,33856
5394,33664
5395,33472
5396,33344
5397,33152
5398,33088
5399,32960
5400,33088
5401,33472
5402,33600
5403,33216
5404,33024
5405,33088
5406,33280
5407,33152
5408,33088
5409,33152
5410,33280
5411,33408
5412,33344
5413,33280
5414,33472
5415,33856
5416,34112
5417,34048
5418,33856
5419,33856
5420,34048
5421,34304
5422,34240
5423,34048
5424,33984
5425,34176
5426,34368
5427,34432
5428,34112
5429,33664
5430,33472
5431,33536
5432,33600
5433,33536
5434,33600
5435,33856
5436,34176
5437,34560
5438,34880
5439,34880
5440,34816
5441,34944
5442,35136
5443,35072
5444,34816
5445,34624
5446,34560
5447,34496
5448,34432
5449,34304
5450,34048
5451,33664
5452,33344
5453,33024
5454,32832
5455,32832
5456,33088
5457,33408
5458,33664
5459,33664
5460,33408
5461,33216
5462,33088
5463,33152
5464,33152
5465,33344
5466,33600
5467,33792
5468,33664
5469,33344
5470,32960
5471,32896
5472,33280
5473,34304
5474,36096
5475,38592
5476,41600
5477,44800
5478,46912
5479,47040
5480,43968
5481,38976
5482,33984
5483,30336
5484,28480
5485,28224
5486,28672
5487,29504
5488,30464
5489,31296
5490,31936
5491,32448
5492,32768
5493,33088
5494,33344
5495,33600
5496,33728
5497,33728
5498,33920
5499,33984
5500,33856
5501,33728
5502,33600
5503,33664
5504,33856
5505,34112
5506,34304
5507,34240
5508,34240
5509,34112
5510,34048
5511,34112
5512,34368
5513,34496
5514,34624
5515,34880
5516,35008
5517,35136
5518,35264
5519,35392
5520,35328
5521,35328
5522,35328
5523,35072
5524,34880
5525,34816
5526,34880
5527,35008
5528,34944
5529,34688
5530,34496
5531,34496
5532,34496
5533,34368
5534,34240
5535,34240
5536,34176
5537,34176
5538,34048
5539,33792
5540,33472
5541,33344
5542,33344
5543,33280
5544,33152
5545,33088
5546,32960
5547,32768
5548,32640
5549,32704
5550,32896
5551,33088
5552,33216
5553,33280
5554,33408
5555,33536
5556,33856
5557,34048
5558,34048
5559,33984
5560,34048
5561,34048
5562,34048
5563,33984
5564,33856
5565,33536
5566,33472
5567,33536
5568,33664
5569,33728
5570,33792
5571,33856
5572,33920
5573,33920
5574,33920
5575,34048
5576,34048
5577,34112
5578,34112
5579,34368
5580,34688
5581,34944
5582,34944
5583,34752
5584,34432
5585,34368
5586,34624
5587,34688
5588,34560
5589,34624
5590,34688
5591,34560
5592,34176
5593,33984
5594,34048
5595,33984
5596,33472
5597,33024
5598,32832
5599,33024
5600,33344
5601,33536
5602,33600
5603,33344
5604,33024
5605,33088
5606,33344
5607,33536
5608,33280
5609,33024
5610,32896
5611,33024
5612,33344
5613,33408
5614,33152
5615,32960
5616,33088
5617,33728
5618,35008
5619,36864
5620,39360
5621,42432
5622,45568
5623,47360
5624,46528
5625,42624
5626,37504
5627,32704
5628,29632
5629,28160
5630,28096
5631,28928
5632,29952
5633,30912
5634,31744
5635,32320
5636,32768
5637,33152
5638,33408
5639,33408
5640,33280
5641,33216
5642,33216
5643,33408
5644,33920
5645,34240
5646,34048
5647,33600
5648,33408
5649,33472
5650,33920
5651,33984
5652,34240
5653,34432
5654,34432
5655,34304
5656,34432
5657,34624
5658,34880
5659,34944
5660,35008
5661,34944
5662,34880
5663,34944
5664,34944
5665,35008
5666,35008
5667,34880
5668,34688
5669,34624
5670,34688
5671,34816
5672,35008
5673,35136
5674,35136
5675,35072
5676,34944
5677,34880
5678,34880
5679,34752
5680,34304
5681,34048
5682,33728
5683,33536
5684,33344
5685,33216
5686,33152
5687,33088
5688,32896
5689,32640
5690,32704
5691,32896
5692,32960
5693,32896
5694,32896
5695,33088
5696,33216
5697,33344
5698,33472
5699,33664
5700,33856
5701,33792
5702,33664
5703,33728
5704,33920
5705,33984
5706,33920
5707,33792
5708,33664
5709,33600
5710,33664
5711,33792
5712,33792
5713,33728
5714,33600
5715,33536
5716,33600
5717,33728
5718,33984
5719,34176
5720,34112
5721,33792
5722,33600
5723,33664
5724,33984
5725,33920
5726,34688
5727,34816
5728,34560
5729,34432
5730,34560
5731,34688
5732,34752
5733,34752
5734,34624
5735,34496
5736,34368
5737,34048
5738,33856
5739,33664
5740,33600
5741,33536
5742,33280
5743,33152
5744,33024
5745,32896
5746,32896
5747,33024
5748,33216
5749,33408
5750,33536
5751,33536
5752,33472
5753,33280
5754,33216
5755,33216
5756,33280
5757,33344
5758,33024
5759,32704
5760,32640
5761,33088
5762,34176
5763,35904
5764,38272
5765,41216
5766,44224
5767,46464
5768,46848
5769,44224
5770,43904
5771,34816
5772,31104
5773,28992
5774,28288
5775,28544
5776,29504
5777,29568
5778,31232
5779,31744
5780,32064
5781,32384
5782,32704
5783,33088
5784,33344
5785,33344
5786,33344
5787,33344
5788,33344
5789,33600
5790,33600
5791,34112
5792,34048
5793,33984
5794,33984
5795,33856
5796,33664
5797,33728
5798,34048
5799,34496
5800,34432
5801,34496
5802,34432
5803,34432
5804,34496
5805,34496
5806,34560
5807,34688
5808,34880
5809,35136
5810,35200
5811,35200
5812,35264
5813,35264
5814,35136
5815,35072
5816,34944
5817,34560
5818,34560
5819,34624
5820,34624
5821,34560
5822,34368
5823,34176
5824,33984
5825,33856
5826,33792
5827,33728
5828,33664
5829,33536
5830,33536
5831,33216
5832,33024
5833,33024
5834,33024
5835,33024
5836,33024
5837,33024
5838,33152
5839,33152
5840,33344
5841,33280
5842,33024
5843,33024
5844,33280
5845,33216
5846,33408
5847,33280
5848,33280
5849,33344
5850,33600
5851,33792
5852,33920
5853,33984
5854,34048
5855,33920
5856,33920
5857,34048
5858,34048
5859,34048
5860,34048
5861,34304
5862,34304
5863,33984
5864,33536
5865,33408
5866,33536
5867,33792
5868,33920
5869,34048
5870,34176
5871,34240
5872,34304
5873,34432
5874,34880
5875,34880
5876,35008
5877,34944
5878,34944
5879,34880
5880,34496
5881,33984
5882,33664
5883,33536
5884,33536
5885,33536
5886,33472
5887,33152
5888,33024
5889,33088
5890,33088
5891,33088
5892,33152
5893,33088
5894,33024
5895,33152
5896,33344
5897,33536
5898,33664
5899,33600
5900,33728
5901,33664
5902,33472
5903,33152
5904,32768
5905,32704
5906,33728
5907,35264
5908,37120
5909,39616
5910,42496
5911,45248
5912,46464
5913,45312
5914,41344
5915,36480
5916,32128
5917,29312
5918,28160
5919,28352
5920,29248
5921,30144
5922,31040
5923,31936
5924,32832
5925,33280
5926,33344
5927,33152
5928,33152
5929,33408
5930,33472
5931,33216
5932,33024
5933,33024
5934,33216
5935,33408
5936,33664
5937,33856
5938,33984
5939,34112
5940,34240
5941,34560
5942,34688
5943,34624
5944,34624
5945,34752
5946,34752
5947,34880
5948,35136
5949,35328
5950,35136
5951,34880
5952,34624
5953,34496
5954,34496
5955,34496
5956,34624
5957,34752
5958,34944
5959,35072
5960,34944
5961,34816
5962,34752
5963,34688
5964,34688
5965,34816
5966,34880
5967,34880
5968,34752
5969,34496
5970,34240
5971,34048
5972,33856
5973,33664
5974,33472
5975,33280
5976,33024
5977,32704
5978,32448
5979,32448
5980,32576
5981,32768
5982,32896
5983,32960
5984,33088
5985,33280
5986,33728
5987,34048
5988,34048
5989,33920
5990,33920
5991,34048
5992,33920
5993,33856
5994,33856
5995,33792
5996,33600
5997,33408
5998,33344
5999,33536
6000,33728
6001,33856
6002,33920
6003,33984
6004,34048
6005,33984
6006,34048
6007,34176
6008,34368
6009,34368
6010,34112
6011,33984
6012,33984
6013,33920
6014,33856
6015,33920
6016,34112
6017,34240
6018,34240
6019,34304
6020,34496
6021,34688
6022,34880
6023,34944
6024,34816
6025,34624
6026,34432
6027,34560
6028,34816
6029,34624
6030,33920
6031,33280
6032,32832
6033,32704
6034,32832
6035,33024
6036,33152
6037,33088
6038,33088
6039,33280
6040,33536
6041,33792
6042,33792
6043,33536
6044,33344
6045,33280
6046,33344
6047,33600
6048,33728
6049,33536
6050,33024
6051,32960
6052,33664
6053,35200
6054,37248
6055,39936
6056,43008
6057,45568
6058,46592
6059,44992
6060,40960
6061,36096
6062,32128
6063,29568
6064,28544
6065,28672
6066,29696
6067,30912
6068,31744
6069,32128
6070,32384
6071,32448
6072,32640
6073,32832
6074,32896
6075,33024
6076,33152
6077,33216
6078,33344
6079,33408
6080,33600
6081,33792
6082,33984
6083,34176
6084,34048
6085,33920
6086,33920
6087,34112
6088,34368
6089,34560
6090,34560
6091,34560
6092,34560
6093,34688
6094,34752
6095,34816
6096,34816
6097,34688
6098,34688
6099,34688
6100,34688
6101,34688
6102,34880
6103,35072
6104,35136
6105,35072
6106,35008
6107,34944
6108,34880
6109,35008
6110,35072
6111,34752
6112,34240
6113,33984
6114,33856
6115,33856
6116,33792
6117,33664
6118,33472
6119,33344
6120,33472
6121,33600
6122,33344
6123,33024
6124,32896
6125,33024
6126,32960
6127,32960
6128,32896
6129,32768
6130,32768
6131,33024
6132,33408
6133,33792
6134,34048
6135,33984
6136,33600
6137,33280
6138,33280
6139,33408
6140,33600
6141,33792
6142,33920
6143,33792
6144,33536
6145,33536
6146,33600
6147,33664
6148,33664
6149,33600
6150,33664
6151,33792
6152,33984
6153,34048
6154,34048
6155,34112
6156,34048
6157,34112
6158,34240
6159,34432
6160,34624
6161,34688
6162,34752
6163,34688
6164,34496
6165,34368
6166,34496
6167,34496
6168,34240
6169,33920
6170,33792
6171,33728
6172,33600
6173,33408
6174,33280
6175,33216
6176,33344
6177,33536
6178,33472
6179,33216
6180,32960
6181,32896
6182,32896
6183,33088
6184,33472
6185,33664
6186,33472
6187,33344
6188,33408
6189,33344
6190,33216
6191,33216
6192,33088
6193,32896
6194,33088
6195,34176
6196,36032
6197,38592
6198,41472
6199,44544
6200,46592
6201,46592
6202,43520
6203,38656
6204,33728
6205,30080
6206,28288
6207,28032
6208,28736
6209,29696
6210,30592
6211,31424
6212,32064
6213,32448
6214,32640
6215,32704
6216,32896
6217,33344
6218,33600
6219,33536
6220,33408
6221,33344
6222,33280
6223,33408
6224,33536
6225,33600
6226,33664
6227,33728
6228,33792
6229,33856
6230,33984
6231,34176
6232,34368
6233,34432
6234,34432
6235,34560
6236,34752
6237,34816
6238,34560
6239,34304
6240,34240
6241,34496
6242,34752
6243,34944
6244,34816
6245,34688
6246,34624
6247,34688
6248,34688
6249,34816
6250,34944
6251,34816
6252,34560
6253,34432
6254,34368
6255,34304
6256,34176
6257,34112
6258,34112
6259,34048
6260,33856
6261,33472
6262,33088
6263,32960
6264,33024
6265,33152
6266,33280
6267,33152
6268,33024
6269,32960
6270,32960
6271,33088
6272,33152
6273,33152
6274,33216
6275,33344
6276,33472
6277,33664
6278,33600
6279,33536
6280,33536
6281,33536
6282,33664
6283,33856
6284,33984
6285,33984
6286,33920
6287,33856
6288,33984
6289,34112
6290,33984
6291,33792
6292,33728
6293,33920
6294,34368
6295,34496
6296,34176
6297,33856
6298,33664
6299,33664
6300,33920
6301,34112
6302,34304
6303,34368
6304,34368
6305,34304
6306,34368
6307,34560
6308,34816
6309,34880
6310,35008
6311,35136
6312,35136
6313,34624
6314,33984
6315,33600
6316,33600
6317,33600
6318,33280
6319,32960
6320,32768
6321,32704
6322,32640
6323,32704
6324,33024
6325,33408
6326,33600
6327,33600
6328,33664
6329,33728
6330,33600
6331,33280
6332,33216
6333,33280
6334,33280
6335,33216
6336,33216
6337,33344
6338,33856
6339,35008
6340,36928
6341,39808
6342,42880
6343,45376
6344,46400
6345,45056
6346,41088
6347,36224
6348,32000
6349,29568
6350,28672
6351,28736
6352,29376
6353,30336
6354,31296
6355,31808
6356,32192
6357,32640
6358,33088
6359,33280
6360,33536
6361,33664
6362,33664
6363,33536
6364,33344
6365,33280
6366,33344
6367,33472
6368,33664
6369,33856
6370,33984
6371,34240
6372,34368
6373,34304
6374,34176
6375,34176
6376,34368
6377,34880
6378,35072
6379,34880
6380,34688
6381,34624
6382,34624
6383,34560
6384,34816
6385,35200
6386,35328
6387,35328
6388,35136
6389,34944
6390,34752
6391,34624
6392,34752
6393,34880
6394,34816
6395,34624
6396,34432
6397,34368
6398,34240
6399,34240
6400,34176
6401,34112
6402,34048
6403,33984
6404,33856
6405,33856
6406,33792
6407,33856
6408,33920
6409,33664
6410,33280
6411,32896
6412,32640
6413,32576
6414,32704
6415,32832
6416,33024
6417,33152
6418,33280
6419,33280
6420,33408
6421,33664
6422,33920
6423,33920
6424,33856
6425,33728
6426,33664
6427,33728
6428,33856
6429,34176
6430,34496
6431,34368
6432,34112
6433,33856
6434,33728
6435,33792
6436,33920
6437,34048
6438,33920
6439,33856
6440,33792
6441,33600
6442,33600
6443,33984
6444,34432
6445,34688
6446,34688
6447,34432
6448,34304
6449,34560
6450,34816
6451,34752
6452,34560
6453,34624
6454,34624
6455,34432
6456,34048
6457,33728
6458,33600
6459,33664
6460,33728
6461,33472
6462,33024
6463,32832
6464,32832
6465,32896
6466,33088
6467,33280
6468,33344
6469,33344
6470,33216
6471,33152
6472,33216
6473,33280
6474,33472
6475,33536
6476,33472
6477,33408
6478,33344
6479,33152
6480,33024
6481,33344
6482,34624
6483,36672
6484,39680
6485,43200
6486,46144
6487,47488
6488,46272
6489,42240
6490,37184
6491,32640
6492,29504
6493,28096
6494,28096
6495,28928
6496,29888
6497,30784
6498,31360
6499,31808
6500,32192
6501,32448
6502,32704
6503,32960
6504,33216
6505,33600
6506,33664
6507,33472
6508,33344
6509,33344
6510,33536
6511,33728
6512,33984
6513,34368
6514,34368
6515,34176
6516,34048
6517,33920
6518,33728
6519,33664
6520,33728
6521,33920
6522,34176
6523,34496
6524,34752
6525,34944
6526,35072
6527,35008
6528,34944
6529,34944
6530,35136
6531,35136
6532,34944
6533,34816
6534,34624
6535,34496
6536,34624
6537,34688
6538,34624
6539,34368
6540,34304
6541,34432
6542,34368
6543,34240
6544,34048
6545,33792
6546,33664
6547,33536
6548,33344
6549,33152
6550,32960
6551,32832
6552,32704
6553,32832
6554,33152
6555,33216
6556,32896
6557,32704
6558,32704
6559,33024
6560,33408
6561,33472
6562,33408
6563,33344
6564,33472
6565,33728
6566,33856
6567,33664
6568,33408
6569,33344
6570,33408
6571,33472
6572,33600
6573,33792
6574,33856
6575,33856
6576,33728
6577,33664
6578,33728
6579,33728
6580,33664
6581,33728
6582,33920
6583,34368
6584,34688
6585,34944
6586,35136
6587,35008
6588,34560
6589,34304
6590,34240
6591,34304
6592,34304
6593,34368
6594,34368
6595,34176
6596,33984
6597,33792
6598,33600
6599,33408
6600,33216
6601,33088
6602,32960
6603,33024
6604,33216
6605,33280
6606,33216
6607,33344
6608,33536
6609,33600
6610,33408
6611,33152
6612,33024
6613,33152
6614,33408
6615,33472
6616,33280
6617,33024
6618,32640
6619,32384
6620,32640
6621,33600
6622,35328
6623,37632
6624,40384
6625,43520
6626,45888
6627,46848
6628,45248
6629,41152
6630,36288
6631,32064
6632,29440
6633,28416
6634,28352
6635,28928
6636,29760
6637,30656
6638,31552
6639,32384
6640,32896
6641,33024
6642,32960
6643,32896
6644,32768
6645,32832
6646,33024
6647,33152
6648,33344
6649,33472
6650,33600
6651,33728
6652,33856
6653,33984
6654,34176
6655,34240
6656,34432
6657,34624
6658,34688
6659,34496
6660,34112
6661,34048
6662,34176
6663,34368
6664,34688
6665,34752
6666,34560
6667,34432
6668,34688
6669,35008
6670,35200
6671,35072
6672,34688
6673,34496
6674,34496
6675,34496
6676,34432
6677,34368
6678,34368
6679,34368
6680,34368
6681,34496
6682,34688
6683,34624
6684,34432
6685,34112
6686,33728
6687,33600
6688,33600
6689,33472
6690,33152
6691,32960
6692,32896
6693,32896
6694,32960
6695,32896
6696,32768
6697,32768
6698,32768
6699,32960
6700,33216
6701,33600
6702,33984
6703,34048
6704,33792
6705,33600
6706,33600
6707,33728
6708,33792
6709,33728
6710,33728
6711,33856
6712,34112
6713,34560
6714,34752
6715,34496
6716,34240
6717,34240
6718,34304
6719,34112
6720,33664
6721,33408
6722,33472
6723,33792
6724,34176
6725,34496
6726,34752
6727,34816
6728,34624
6729,34560
6730,34752
6731,35008
6732,35136
6733,35200
6734,35008
6735,34688
6736,34304
6737,33920
6738,33664
6739,33472
6740,33216
6741,33088
6742,33152
6743,33152
6744,33088
6745,33024
6746,33216
6747,33280
6748,33280
6749,33536
6750,33728
6751,33600
6752,33408
6753,33344
6754,33344
6755,33344
6756,33280
6757,33280
6758,33216
6759,33024
6760,33024
6761,33472
6762,34176
6763,35456
6764,37440
6765,40384
6766,43712
6767,46336
6768,47040
6769,45184
6770,40960
6771,36032
6772,31744
6773,29184
6774,28224
6775,28416
6776,29248
6777,30144
6778,30912
6779,31552
6780,32128
6781,32704
6782,32960
6783,33088
6784,33280
6785,33280
6786,33344
6787,33600
6788,33664
6789,33536
6790,33600
6791,33728
6792,34048
6793,34176
6794,34176
6795,34048
6796,33920
6797,33920
6798,34048
6799,34304
6800,34496
6801,34560
6802,34624
6803,34624
6804,34624
6805,34816
6806,34944
6807,34944
6808,34944
6809,34944
6810,35008
6811,35072
6812,35072
6813,35072
6814,35072
6815,34944
6816,34880
6817,34752
6818,34624
6819,34560
6820,34560
6821,34560
6822,34432
6823,34240
6824,34112
6825,34048
6826,34048
6827,33920
6828,33792
6829,33536
6830,33280
6831,33216
6832,33408
6833,33408
6834,33216
6835,33088
6836,32960
6837,32768
6838,32768
6839,32896
6840,33024
6841,33280
6842,33664
6843,33856
6844,33792
6845,33728
6846,33792
6847,33856
6848,33856
6849,33856
6850,33856
6851,33856
6852,33984
6853,34176
6854,34368
6855,34432
6856,34304
6857,33984
6858,33792
6859,33664
6860,33728
6861,33856
6862,33856
6863,33664
6864,33664
6865,33920
6866,34368
6867,34688
6868,34816
6869,34688
6870,34432
6871,34368
6872,34688
6873,34944
6874,34816
6875,34752
6876,34752
6877,34752
6878,34560
6879,34240
6880,34048
6881,33856
6882,33600
6883,33344
6884,33152
6885,32896
6886,32768
6887,32768
6888,32896
6889,33088
6890,33216
6891,33408
6892,33600
6893,33600
6894,33600
6895,33664
6896,33536
6897,33344
6898,33280
6899,33216
6900,33408
6901,33408
6902,33088
6903,32960
6904,33408
6905,35072
6906,37248
6907,40000
6908,43328
6909,46144
6910,47296
6911,45632
6912,41728
6913,36800
6914,32576
6915,29952
6916,28864
6917,28800
6918,29376
6919,30144
6920,30720
6921,31296
6922,31808
6923,32320
6924,32704
6925,33024
6926,33280
6927,33344
6928,33280
6929,33280
6930,33408
6931,33536
6932,33792
6933,33984
6934,33984
6935,33984
6936,33920
6937,33856
6938,33920
6939,34112
6940,34368
6941,34624
6942,34752
6943,34752
6944,34560
6945,34496
6946,34624
6947,34816
6948,34944
6949,35200
6950,35328
6951,35264
6952,35072
6953,34880
6954,34752
6955,34752
6956,34880
6957,34944
6958,34816
6959,34688
6960,34624
6961,34560
6962,34624
6963,34688
6964,34752
6965,34624
6966,34368
6967,34048
6968,33792
6969,33664
6970,33536
6971,33280
6972,33024
6973,32960
6974,32960
6975,33024
6976,33152
6977,33088
6978,33024
6979,32960
6980,33152
6981,33280
6982,33216
6983,33088
6984,33088
6985,33280
6986,33472
6987,33728
6988,33984
6989,33984
6990,33856
6991,33728
6992,33664
6993,33600
6994,33664
6995,33856
6996,33984
6997,34048
6998,33984
6999,33984
7000,33984
7001,33920
7002,33792
7003,33728
7004,33792
7005,33856
7006,34048
7007,34112
7008,34240
7009,34432
7010,34688
7011,35008
7012,35008
7013,34752
7014,34560
7015,34624
7016,34880
7017,34880
7018,34560
7019,34240
7020,34048
7021,33984
7022,33920
7023,33856
7024,33472
7025,33280
7026,33216
7027,32960
7028,32832
7029,32832
7030,33088
7031,33472
7032,33600
7033,33408
7034,33152
7035,33024
7036,33088
7037,33216
7038,33344
7039,33472
7040,33472
7041,33472
7042,33344
7043,33152
7044,32960
7045,33280
7046,34176
7047,35712
7048,37952
7049,40896
7050,44032
7051,46592
7052,47360
7053,45312
7054,40896
7055,35904
7056,31616
7057,29056
7058,28224
7059,28608
7060,29760
7061,30656
7062,31296
7063,31616
7064,31936
7065,32384
7066,32832
7067,33088
7068,33024
7069,33088
7070,33280
7071,33472
7072,33664
7073,33664
7074,33728
7075,33984
7076,34112
7077,34176
7078,33984
7079,33856
7080,33856
7081,33920
7082,33984
7083,34112
7084,34368
7085,34560
7086,34688
7087,34816
7088,35008
7089,35264
7090,35392
7091,35264
7092,35008
7093,34880
7094,34880
7095,35072
7096,35328
7097,35392
7098,35136
7099,34880
7100,34816
7101,34688
7102,34496
7103,34368
7104,34304
7105,34304
7106,34304
7107,34240
7108,34112
7109,33984
7110,33984
7111,33920
7112,33728
7113,33408
7114,33216
7115,33088
7116,32960
7117,32896
7118,32896
7119,32960
7120,33088
7121,33024
7122,32960
7123,32832
7124,32832
7125,33024
7126,33152
7127,33280
7128,33344
7129,33408
7130,33472
7131,33472
7132,33472
7133,33600
7134,33920
7135,34048
7136,33856
7137,33728
7138,33792
7139,33984
7140,34112
7141,34112
7142,33920
7143,33792
7144,33792
7145,33792
7146,33792
7147,33728
7148,33536
7149,33536
7150,33792
7151,33920
7152,34112
7153,34304
7154,34560
7155,34752
7156,34688
7157,34688
7158,34688
7159,34624
7160,34496
7161,34368
7162,34240
7163,34240
7164,34304
7165,34240
7166,33984
7167,33664
7168,33408
7169,33216
7170,33216
7171,33216
7172,33088
7173,32960
7174,32960
7175,33152
7176,33408
7177,33408
7178,33344
7179,33280
7180,33536
7181,33664
7182,33728
7183,33728
7184,33600
7185,33344
7186,33024
7187,32768
7188,32640
7189,33024
7190,34048
7191,35840
7192,38400
7193,41344
7194,44608
7195,46912
7196,46912
7197,43776
7198,38848
7199,33920
7200,30272
7201,28608
7202,28352
7203,29056
7204,29952
7205,30784
7206,31552
7207,32128
7208,32384
7209,32576
7210,32640
7211,32704
7212,32896
7213,33216
7214,33408
7215,33472
7216,33472
7217,33472
7218,33536
7219,33728
7220,33856
7221,33920
7222,33920
7223,33856
7224,33856
7225,34240
7226,34624
7227,34880
7228,34880
7229,34688
7230,34560
7231,34432
7232,34496
7233,34624
7234,34880
7235,35072
7236,35136
7237,35264
7238,35328
7239,35200
7240,34816
7241,34496
7242,34496
7243,34688
7244,34816
7245,34880
7246,34816
7247,34624
7248,34624
7249,34688
7250,34560
7251,34304
7252,34112
7253,33920
7254,33728
7255,33792
7256,33792
7257,33728
7258,33664
7259,33280
7260,32896
7261,32640
7262,32576
7263,32640
7264,32576
7265,32576
7266,32768
7267,32960
7268,33152
7269,33216
7270,33344
7271,33472
7272,33536
7273,33664
7274,33792
7275,33984
7276,33920
7277,33920
7278,33984
7279,34176
7280,34368
7281,34304
7282,34048
7283,33984
7284,33920
7285,33664
7286,33536
7287,33536
7288,33536
7289,33472
7290,33472
7291,33536
7292,33728
7293,33920
7294,34112
7295,34368
7296,34368
7297,34304
7298,34304
7299,34432
7300,34496
7301,34560
7302,34624
7303,34816
7304,35008
7305,35008
7306,34880
7307,34560
7308,34176
7309,33984
7310,33920
7311,33792
7312,33664
7313,33536
7314,33536
7315,33344
7316,33024
7317,32768
7318,32832
7319,33024
7320,33088
7321,33024
7322,32960
7323,32960
7324,33024
7325,33216
7326,33472
7327,33728
7328,33792
7329,33664
7330,33472
7331,33280
7332,33152
7333,33280
7334,33856
7335,35328
7336,37376
7337,39936
7338,42944
7339,45440
7340,46656
7341,45248
7342,41024
7343,36032
7344,31744
7345,28864
7346,28352
7347,28672
7348,29504
7349,30464
7350,31360
7351,32064
7352,32512
7353,32768
7354,32896
7355,33152
7356,33472
7357,33536
7358,33600
7359,33792
7360,34048
7361,33984
7362,33792
7363,33792
7364,33920
7365,33984
7366,34048
7367,34048
7368,34112
7369,34112
7370,34048
7371,34112
7372,34304
7373,34496
7374,34560
7375,34560
7376,34688
7377,34944
7378,35136
7379,35264
7380,35328
7381,35264
7382,35136
7383,34944
7384,34880
7385,34880
7386,34880
7387,35008
7388,35392
7389,35712
7390,35456
7391,35008
7392,34560
7393,34368
7394,34368
7395,34240
7396,34176
7397,33984
7398,33728
7399,33472
7400,33280
7401,33216
7402,33088
7403,33024
7404,33024
7405,33024
7406,33024
7407,32960
7408,33024
7409,33152
7410,33152
7411,33152
7412,33216
7413,33216
7414,33216
7415,33536
7416,34048
7417,34176
7418,33920
7419,33600
7420,33408
7421,33408
7422,33536
7423,33728
7424,33792
7425,33856
7426,34112
7427,34176
7428,33856
7429,33728
7430,33664
7431,33600
7432,33600
7433,33792
7434,34432
7435,34880
7436,34624
7437,34304
7438,33984
7439,33472
7440,33280
7441,33408
7442,33728
7443,34112
7444,34240
7445,34240
7446,34240
7447,34368
7448,34560
7449,34752
7450,35008
7451,35264
7452,35392
7453,35200
7454,34688
7455,34112
7456,33472
7457,33088
7458,32896
7459,32832
7460,32896
7461,33152
7462,33216
7463,33088
7464,33216
7465,33728
7466,33536
7467,33152
7468,32960
7469,32768
7470,32640
7471,32768
7472,32960
7473,33024
7474,33088
7475,33152
7476,33152
7477,33088
7478,33344
7479,34048
7480,35328
7481,37184
7482,39744
7483,42688
7484,45376
7485,46656
7486,45632
7487,41792
7488,36800
7489,32320
7490,29376
7491,28096
7492,28160
7493,28992
7494,30016
7495,31488
7496,32000
7497,32512
7498,32832
7499,32960
7500,33280
7501,33664
7502,33856
7503,33792
7504,33600
7505,33472
7506,33344
7507,33216
7508,33088
7509,33088
7510,33216
7511,33472
7512,33728
7513,33920
7514,34048
7515,34176
7516,34304
7517,34432
7518,34432
7519,34496
7520,34688
7521,35008
7522,35456
7523,35712
7524,35776
7525,35136
7526,34816
7527,34560
7528,34432
7529,34432
7530,34496
7531,34560
7532,34496
7533,34880
7534,34944
7535,34816
7536,34752
7537,34688
7538,34624
7539,34432
7540,34368
7541,34176
7542,34176
7543,34240
7544,33984
7545,33664
7546,33408
7547,33152
7548,32832
7549,32640
7550,32448
7551,32384
7552,32320
7553,32384
7554,32512
7555,32704
7556,32960
7557,33216
7558,33344
7559,33472
7560,33472
7561,33472
7562,33536
7563,33472
7564,34112
7565,34560
7566,34304
7567,33792
7568,33472
7569,33344
7570,33280
7571,33280
7572,33344
7573,33408
7574,33600
7575,33792
7576,33856
7577,33856
7578,33792
7579,33792
7580,33728
7581,33920
7582,34496
7583,34816
7584,34624
7585,34560
7586,34432
7587,34304
7588,34112
7589,34368
7590,34688
7591,34624
7592,34368
7593,34176
7594,34112
7595,34112
7596,34048
7597,33920
7598,33728
7599,33408
7600,33344
7601,33408
7602,33536
7603,33600
7604,33536
7605,33280
7606,32960
7607,32704
7608,32704
7609,32960
7610,33152
7611,33280
7612,33216
7613,33152
7614,33152
7615,33152
7616,33216
7617,33216
7618,33152
7619,33024
7620,33088
7621,33728
7622,35008
7623,37120
7624,40000
7625,43200
7626,45824
7627,46976
7628,45632
7629,41728
7630,36928
7631,32448
7632,29312
7633,27904
7634,27968
7635,28864
7636,30080
7637,30848
7638,31424
7639,31872
7640,32384
7641,32704
7642,32832
7643,32896
7644,32960
7645,32896
7646,33152
7647,33408
7648,33600
7649,33664
7650,33728
7651,33920
7652,34112
7653,34112
7654,34048
7655,33984
7656,34048
7657,34112
7658,34240
7659,34368
7660,34496
7661,34880
7662,35136
7663,35072
7664,34688
7665,34368
7666,34304
7667,34432
7668,34368
7669,34880
7670,35072
7671,35072
7672,35072
7673,35008
7674,34944
7675,34880
7676,34944
7677,35008
7678,35200
7679,35328
7680,35136
7681,34624
7682,34048
7683,33664
7684,33536
7685,33472
7686,33600
7687,33664
7688,33536
7689,33280
7690,33216
7691,33024
7692,32960
7693,32768
7694,32640
7695,32640
7696,32704
7697,32960
7698,33216
7699,33472
7700,33408
7701,33280
7702,33344
7703,33344
7704,33344
7705,33344
7706,33408
7707,33600
7708,33792
7709,33984
7710,34176
7711,34176
7712,34240
7713,34304
7714,34048
7715,33728
7716,33536
7717,33536
7718,33664
7719,33792
7720,33792
7721,33856
7722,33920
7723,34176
7724,34368
7725,34176
7726,33920
7727,33856
7728,33792
7729,34240
7730,34368
7731,34368
7732,34368
7733,34496
7734,34496
7735,34432
7736,34496
7737,34432
7738,34496
7739,34496
7740,34496
7741,34432
7742,34368
7743,34432
7744,34368
7745,34112
7746,33664
7747,33344
7748,33088
7749,32960
7750,32960
7751,33088
7752,33280
7753,33408
7754,33408
7755,33216
7756,33152
7757,33216
7758,33344
7759,33408
7760,33408
7761,33536
7762,33536
7763,33280
7764,32832
7765,32512
7766,32704
7767,33536
7768,35072
7769,37184
7770,39936
7771,43136
7772,45632
7773,46784
7774,45440
7775,41536
7776,36992
7777,32832
7778,29888
7779,28416
7780,28224
7781,28928
7782,30016
7783,31040
7784,31680
7785,32384
7786,32960
7787,33024
7788,32768
7789,32640
7790,32640
7791,32832
7792,33088
7793,33344
7794,33664
7795,33664
7796,33856
7797,33920
7798,33920
7799,34112
7800,34368
7801,34816
7802,35328
7803,35264
7804,34944
7805,34304
7806,33984
7807,33920
7808,34240
7809,34624
7810,34560
7811,34752
7812,34752
7813,34880
7814,34816
7815,34880
7816,35008
7817,35072
7818,35008
7819,34944
7820,34880
7821,35008
7822,35328
7823,35648
7824,35456
7825,34880
7826,34304
7827,33920
7828,33856
7829,34048
7830,34112
7831,34176
7832,34048
7833,33920
7834,33664
7835,33152
7836,32704
7837,32576
7838,32576
7839,32576
7840,32512
7841,32768
7842,32896
7843,33088
7844,33344
7845,33728
7846,33984
7847,33920
7848,33664
7849,33408
7850,33280
7851,33408
7852,33472
7853,33344
7854,33280
7855,33344
7856,33472
7857,33664
7858,33856
7859,34048
7860,34112
7861,34176
7862,34176
7863,34176
7864,34304
7865,34560
7866,34496
7867,34240
7868,34176
7869,34176
7870,34048
7871,33600
7872,33472
7873,33408
7874,33344
7875,33536
7876,33984
7877,34368
7878,34560
7879,34752
7880,34816
7881,34944
7882,35072
7883,35008
7884,34752
7885,34368
7886,34304
7887,34624
7888,35072
7889,34816
7890,33920
7891,33216
7892,32896
7893,32832
7894,32768
7895,32704
7896,32768
7897,32960
7898,33344
7899,33792
7900,33792
7901,33536
7902,33472
7903,33600
7904,33664
7905,33600
7906,33472
7907,33280
7908,33280
7909,33280
7910,33024
7911,32832
7912,33088
7913,33920
7914,35392
7915,37312
7916,39808
7917,42816
7918,45632
7919,47040
7920,45760
7921,41216
7922,36736
7923,32320
7924,29568
7925,28352
7926,28416
7927,29376
7928,30528
7929,31296
7930,31744
7931,32320
7932,32832
7933,33152
7934,33344
7935,33216
7936,33088
7937,33088
7938,33088
7939,33152
7940,33344
7941,33536
7942,33792
7943,33984
7944,34048
7945,34304
7946,34496
7947,34560
7948,34624
7949,34880
7950,35008
7951,34752
7952,34368
7953,34048
7954,33984
7955,34176
7956,34624
7957,34944
7958,35072
7959,35072
7960,35072
7961,35200
7962,35200
7963,35200
7964,35072
7965,34944
7966,35008
7967,35264
7968,35520
7969,35328
7970,34944
7971,34560
7972,34304
7973,34240
7974,34368
7975,34368
7976,34368
7977,34112
7978,33856
7979,33728
7980,33536
7981,33152
7982,32832
7983,32704
7984,32640
7985,32576
7986,32704
7987,32896
7988,33024
7989,32960
7990,32704
7991,32832
7992,33152
7993,33216
7994,33152
7995,33280
7996,33408
7997,33600
7998,33600
7999,33536
8000,33664
8001,33920
8002,33920
8003,33792
8004,33664
8005,33728
8006,33920
8007,34176
8008,34304
8009,34176
8010,34048
8011,34240
8012,34304
8013,34112
8014,33920
8015,33664
8016,33344
8017,33216
8018,33280
8019,33472
8020,33664
8021,33728
8022,33920
8023,34240
8024,34560
8025,34816
8026,34944
8027,34816
8028,34816
8029,34816
8030,34944
8031,35072
8032,34816
8033,34496
8034,34240
8035,34304
8036,34304
8037,33984
8038,33600
8039,33216
8040,33024
8041,33024
8042,33024
8043,33088
8044,33344
8045,33472
8046,33408
8047,33344
8048,33280
8049,33344
8050,33536
8051,33792
8052,34112
8053,33984
8054,33472
8055,33408
8056,33472
8057,33280
8058,33024
8059,33024
8060,33536
8061,34752
8062,36672
8063,39360
8064,42496
8065,45376
8066,46912
8067,46080
8068,42240
8069,37184
8070,32576
8071,29632
8072,28672
8073,28928
8074,29824
8075,30464
8076,30976
8077,31552
8078,32064
8079,32384
8080,32512
8081,32768
8082,33024
8083,33216
8084,33344
8085,33472
8086,33600
8087,33664
8088,33728
8089,33728
8090,33792
8091,33856
8092,34112
8093,34560
8094,34880
8095,34432
8096,33920
8097,33664
8098,33856
8099,34240
8100,34432
8101,34432
8102,34560
8103,34688
8104,34944
8105,35328
8106,35520
8107,35456
8108,35392
8109,35328
8110,35264
8111,35136
8112,35136
8113,35136
8114,34880
8115,34560
8116,34432
8117,34432
8118,34432
8119,34432
8120,34624
8121,34880
8122,34816
8123,34368
8124,33984
8125,33920
8126,33856
8127,33472
8128,32960
8129,32704
8130,32640
8131,32640
8132,32704
8133,33024
8134,33088
8135,32896
8136,32704
8137,32640
8138,32832
8139,33152
8140,33344
8141,33344
8142,33344
8143,33216
8144,33152
8145,33344
8146,33536
8147,33728
8148,33792
8149,33792
8150,34048
8151,34368
8152,34304
8153,33984
8154,33728
8155,33728
8156,33792
8157,33920
8158,34176
8159,34240
8160,33920
8161,33536
8162,33536
8163,33728
8164,33664
8165,33472
8166,33280
8167,33280
8168,33600
8169,33984
8170,34432
8171,34816
8172,34944
8173,34880
8174,34816
8175,34816
8176,34816
8177,34752
8178,34816
8179,34880
8180,34880
8181,34752
8182,34496
8183,34048
8184,33664
8185,33280
8186,32896
8187,32704
8188,32640
8189,32640
8190,32704
8191,32832
8192,33024
8193,33152
8194,33280
8195,33344
8196,33344
8197,33408
8198,33472
8199,33472
8200,33600
8201,33792
8202,33728
8203,33600
8204,33536
8205,33472
8206,33664
8207,34432
8208,35968
8209,38528
8210,41536
8211,44416
8212,46400
8213,46336
8214,43264
8215,38464
8216,33728
8217,30400
8218,28800
8219,28544
8220,29184
8221,30144
8222,30912
8223,31616
8224,32192
8225,32448
8226,32640
8227,32960
8228,33024
8229,32896
8230,32768
8231,32832
8232,33088
8233,33216
8234,33280
8235,33408
8236,33664
8237,33984
8238,34112
8239,34112
8240,34240
8241,34368
8242,34304
8243,34304
8244,34432
8245,34688
8246,34752
8247,34816
8248,34624
8249,34432
8250,34368
8251,34432
8252,34688
8253,34816
8254,34752
8255,34688
8256,34688
8257,34752
8258,34752
8259,34880
8260,35136
8261,35200
8262,34880
8263,34624
8264,34688
8265,34880
8266,34816
8267,34432
8268,34176
8269,34048
8270,33856
8271,33664
8272,33472
8273,33216
8274,32960
8275,32768
8276,32832
8277,32960
8278,33088
8279,32896
8280,32640
8281,32640
8282,32960
8283,33088
8284,33088
8285,33024
8286,33024
8287,33280
8288,33472
8289,33536
8290,33408
8291,33216
8292,33152
8293,33280
8294,33408
8295,33536
8296,33728
8297,34048
8298,34240
8299,34176
8300,34112
8301,33984
8302,33728
8303,33600
8304,33664
8305,33792
8306,33856
8307,33920
8308,33984
8309,33856
8310,33728
8311,33728
8312,33792
8313,33984
8314,34240
8315,34560
8316,34752
8317,34816
8318,34944
8319,35008
8320,34944
8321,34688
8322,34432
8323,34304
8324,34240
8325,34304
8326,34304
8327,34048
8328,33600
8329,33216
8330,32896
8331,32960
8332,33088
8333,32896
8334,32768
8335,32768
8336,32960
8337,33152
8338,33216
8339,33344
8340,33536
8341,33664
8342,33728
8343,33664
8344,33408
8345,33280
8346,33152
8347,32960
8348,32768
8349,33024
8350,34048
8351,35712
8352,37824
8353,40512
8354,43584
8355,45952
8356,46592
8357,44288
8358,40192
8359,35328
8360,31488
8361,29376
8362,28608
8363,28928
8364,29632
8365,30336
8366,30912
8367,31360
8368,31936
8369,32448
8370,32704
8371,32832
8372,32832
8373,33024
8374,33408
8375,33728
8376,33792
8377,33664
8378,33600
8379,33728
8380,33792
8381,33856
8382,33920
8383,33920
8384,33984
8385,34048
8386,34304
8387,34496
8388,34432
8389,34432
8390,34560
8391,34880
8392,35072
8393,34944
8394,34816
8395,35008
8396,35072
8397,35072
8398,34880
8399,34688
8400,34624
8401,34688
8402,34624
8403,34560
8404,34688
8405,34880
8406,34944
8407,34944
8408,34880
8409,34624
8410,34496
8411,34368
8412,33984
8413,33664
8414,33600
8415,33600
8416,33536
8417,33472
8418,33472
8419,33280
8420,33152
8421,33024
8422,32960
8423,32896
8424,33024
8425,33152
8426,33280
8427,33216
8428,33024
8429,33024
8430,33216
8431,33408
8432,33472
8433,33536
8434,33664
8435,33920
8436,34176
8437,34176
8438,33920
8439,33792
8440,33920
8441,34048
8442,34240
8443,34496
8444,34368
8445,33984
8446,33792
8447,33600
8448,33664
8449,33856
8450,34048
8451,33856
8452,33600
8453,33472
8454,33728
8455,34240
8456,34624
8457,34816
8458,34624
8459,34432
8460,34368
8461,34560
8462,34880
8463,34944
8464,34944
8465,34752
8466,34496
8467,34304
8468,34240
8469,34176
8470,33984
8471,33728
8472,33280
8473,32960
8474,32896
8475,32896
8476,33024
8477,33152
8478,33408
8479,33728
8480,33664
8481,33344
8482,33152
8483,33088
8484,33088
8485,33536
8486,33920
8487,33920
8488,33536
8489,33280
8490,33088
8491,32896
8492,33024
8493,33664
8494,34688
8495,36288
8496,38592
8497,41536
8498,44480
8499,46400
8500,46336
8501,43328
8502,38592
8503,33984
8504,30528
8505,28672
8506,28224
8507,28800
8508,29696
8509,30848
8510,31936
8511,32704
8512,32832
8513,32896
8514,33024
8515,33216
8516,33280
8517,33280
8518,33344
8519,33280
8520,33344
8521,33472
8522,33728
8523,33920
8524,34112
8525,34304
8526,34432
8527,34496
8528,34432
8529,34240
8530,34176
8531,34176
8532,34240
8533,34304
8534,34368
8535,34496
8536,34688
8537,34816
8538,35008
8539,35328
8540,35392
8541,35200
8542,35136
8543,35200
8544,35264
8545,35008
8546,34752
8547,34688
8548,34816
8549,34880
8550,34880
8551,34688
8552,34496
8553,34240
8554,34112
8555,34048
8556,34048
8557,34176
8558,34432
8559,34304
8560,33792
8561,33280
8562,33152
8563,33088
8564,33216
8565,33216
8566,33088
8567,33024
8568,32896
8569,32960
8570,33152
8571,33280
8572,33280
8573,33344
8574,33408
8575,33664
8576,33728
8577,33600
8578,33472
8579,33408
8580,33600
8581,33856
8582,34048
8583,34048
8584,33856
8585,33728
8586,33728
8587,33856
8588,34048
8589,34048
8590,33920
8591,33920
8592,34112
8593,34432
8594,34432
8595,34176
8596,33856
8597,33728
8598,33920
8599,34176
8600,34368
8601,34496
8602,34432
8603,34304
8604,34368
8605,34496
8606,34624
8607,34816
8608,34944
8609,34880
8610,34752
8611,34560
8612,34240
8613,33920
8614,33728
8615,33536
8616,33280
8617,32960
8618,32896
8619,32832
8620,32896
8621,32960
8622,33088
8623,33088
8624,33024
8625,33088
8626,33408
8627,33600
8628,33472
8629,33280
8630,33216
8631,33216
8632,33152
8633,33088
8634,33152
8635,33408
8636,33984
8637,35200
8638,37056
8639,39616
8640,42624
8641,45568
8642,47168
8643,46080
8644,42240
8645,37184
8646,32640
8647,29696
8648,28736
8649,28800
8650,29184
8651,29824
8652,30656
8653,31424
8654,32192
8655,32640
8656,32832
8657,32832
8658,33088
8659,33408
8660,33664
8661,33856
8662,33792
8663,33728
8664,33664
8665,33792
8666,33984
8667,33984
8668,33856
8669,33728
8670,33728
8671,33856
8672,34048
8673,34240
8674,34432
8675,34688
8676,34880
8677,34816
8678,34624
8679,34560
8680,34752
8681,35008
8682,35392
8683,35456
8684,35136
8685,34816
8686,34688
8687,34880
8688,35008
8689,35008
8690,34752
8691,34624
8692,34688
8693,34816
8694,34816
8695,34880
8696,34944
8697,34752
8698,34304
8699,33792
8700,33472
8701,33280
8702,33280
8703,33344
8704,33536
8705,33408
8706,33216
8707,33152
8708,33152
8709,33024
8710,32832
8711,32896
8712,33088
8713,33216
8714,33344
8715,33344
8716,33152
8717,33024
8718,33024
8719,33088
8720,33216
8721,33472
8722,33856
8723,33984
8724,33984
8725,33920
8726,33920
8727,33856
8728,33856
8729,33792
8730,33664
8731,33664
8732,33728
8733,33920
8734,33984
8735,33920
8736,33728
8737,33600
8738,33664
8739,34048
8740,34304
8741,34432
8742,34624
8743,34752
8744,34560
8745,34368
8746,34496
8747,34688
8748,34688
8749,34688
8750,34752
8751,34688
8752,34432
8753,34176
8754,33920
8755,33728
8756,33472
8757,33280
8758,33216
8759,32960
8760,32704
8761,32640
8762,32960
8763,33152
8764,33216
8765,33216
8766,33152
8767,33088
8768,33088
8769,33216
8770,33216
8771,33344
8772,33600
8773,33664
8774,33408
8775,33024
8776,32704
8777,32960
8778,33920
8779,35648
8780,37888
8781,40640
8782,43712
8783,46336
8784,47232
8785,45248
8786,40640
8787,35520
8788,31424
8789,29120
8790,28160
8791,28288
8792,29120
8793,30144
8794,31040
8795,31680
8796,32128
8797,32448
8798,32768
8799,33088
8800,33600
8801,33792
8802,33728
8803,33536
8804,33536
8805,33792
8806,34112
8807,33984
8808,33728
8809,33536
8810,33536
8811,33536
8812,33600
8813,33856
8814,34112
8815,34432
8816,34752
8817,34880
8818,34752
8819,34624
8820,34496
8821,34560
8822,34688
8823,34880
8824,34816
8825,34752
8826,34752
8827,34752
8828,34816
8829,34944
8830,35200
8831,35328
8832,35136
8833,35008
8834,34816
8835,34688
8836,34624
8837,34496
8838,34176
8839,33856
8840,33792
8841,33792
8842,33792
8843,33664
8844,33472
8845,33152
8846,33024
8847,33024
8848,33152
8849,33408
8850,33664
8851,33664
8852,33216
8853,32832
8854,32896
8855,33024
8856,32832
8857,32704
8858,32896
8859,33216
8860,33472
8861,33408
8862,33344
8863,33408
8864,33472
8865,33664
8866,33920
8867,34176
8868,34240
8869,34304
8870,34240
8871,34048
8872,33856
8873,33664
8874,33664
8875,33856
8876,33856
8877,33920
8878,33920
8879,33728
8880,33664
8881,33920
8882,34496
8883,34816
8884,34496
8885,34240
8886,34304
8887,34432
8888,34432
8889,34496
8890,34560
8891,34624
8892,34688
8893,34560
8894,34368
8895,34112
8896,33856
8897,33664
8898,33536
8899,33344
8900,33280
8901,33344
8902,33408
8903,33280
8904,32896
8905,32640
8906,32576
8907,32704
8908,32896
8909,33088
8910,33280
8911,33472
8912,33472
8913,33408
8914,33600
8915,33664
8916,33344
8917,32960
8918,32960
8919,33664
8920,35200
8921,37376
8922,40320
8923,43392
8924,45824
8925,46656
8926,44864
8927,40384
8928,35712
8929,31616
8930,29248
8931,28480
8932,28800
8933,29696
8934,30464
8935,31168
8936,31744
8937,32256
8938,32576
8939,32768
8940,33152
8941,33344
8942,33280
8943,33216
8944,33344
8945,33536
8946,33728
8947,33856
8948,34048
8949,33984
8950,33856
8951,33792
8952,33920
8953,34176
8954,34304
8955,34304
8956,34368
8957,34432
8958,34496
8959,34688
8960,34880
8961,34880
8962,34816
8963,34816
8964,34944
8965,35008
8966,35008
8967,34880
8968,34816
8969,34816
8970,34688
8971,34624
8972,34560
8973,34560
8974,34624
8975,34624
8976,34688
8977,35008
8978,35200
8979,34880
8980,34432
8981,34112
8982,33792
8983,33600
8984,33536
8985,33536
8986,33408
8987,33280
8988,33152
8989,33024
8990,32896
8991,33024
8992,33344
8993,33408
8994,33024
8995,32832
8996,32896
8997,33088
8998,33216
8999,33280
9000,33280
9001,33280
9002,33344
9003,33472
9004,33664
9005,33792
9006,33856
9007,33984
9008,33984
9009,33920
9010,33984
9011,33984
9012,33920
9013,33856
9014,33984
9015,33984
9016,33920
9017,33792
9018,33664
9019,33856
9020,34240
9021,34496
9022,34432
9023,34304
9024,34304
9025,34304
9026,34368
9027,34560
9028,34624
9029,34624
9030,34624
9031,34688
9032,34688
9033,34624
9034,34560
9035,34496
9036,34240
9037,33920
9038,33664
9039,33472
9040,33088
9041,32832
9042,32768
9043,32896
9044,33088
9045,33216
9046,33088
9047,33024
9048,33024
9049,33216
9050,33216
9051,33216
9052,33216
9053,33280
9054,33408
9055,33472
9056,33280
9057,32896
9058,32640
9059,33024
9060,34176
9061,35904
9062,37824
9063,40320
9064,43200
9065,45760
9066,46784
9067,45184
9068,40960
9069,35904
9070,30976
9071,29056
9072,28096
9073,28352
9074,29184
9075,30208
9076,31104
9077,31808
9078,32384
9079,32768
9080,33088
9081,33472
9082,33728
9083,33664
9084,33472
9085,33280
9086,33216
9087,33280
9088,33472
9089,33792
9090,34112
9091,34112
9092,33920
9093,33856
9094,33920
9095,34048
9096,34176
9097,34368
9098,34560
9099,34624
9100,34752
9101,34752
9102,34880
9103,34944
9104,34816
9105,34752
9106,34944
9107,34944
9108,34752
9109,34816
9110,35136
9111,35200
9112,35072
9113,34816
9114,34624
9115,34496
9116,34496
9117,34432
9118,34432
9119,34560
9120,34816
9121,34816
9122,34496
9123,34240
9124,34176
9125,33984
9126,33664
9127,33280
9128,33088
9129,33152
9130,33216
9131,33152
9132,33024
9133,32960
9134,32832
9135,32768
9136,32768
9137,32832
9138,32960
9139,33280
9140,33408
9141,33472
9142,33536
9143,33664
9144,33728
9145,33664
9146,33728
9147,33920
9148,34048
9149,33984
9150,33856
9151,33728
9152,33792
9153,34048
9154,34112
9155,33984
9156,33856
9157,33792
9158,33792
9159,33792
9160,33600
9161,33600
9162,33728
9163,33984
9164,34240
9165,34432
9166,34560
9167,34752
9168,34880
9169,34944
9170,34880
9171,34752
9172,34688
9173,34752
9174,34816
9175,34688
9176,34368
9177,34048
9178,33792
9179,33472
9180,33216
9181,33088
9182,33024
9183,32832
9184,32704
9185,32768
9186,32960
9187,33088
9188,33088
9189,33088
9190,33088
9191,33088
9192,33152
9193,33216
9194,33472
9195,33664
9196,33728
9197,33600
9198,33280
9199,33024
9200,33088
9201,33664
9202,35328
9203,37696
9204,40704
9205,44480
9206,46272
9207,46912
9208,44864
9209,40640
9210,35840
9211,31808
9212,29184
9213,28224
9214,28416
9215,29312
9216,30272
9217,31232
9218,32000
9219,32448
9220,32768
9221,32960
9222,33216
9223,33216
9224,33024
9225,33024
9226,33280
9227,33600
9228,33728
9229,33600
9230,33472
9231,33472
9232,33728
9233,33984
9234,34112
9235,34048
9236,33984
9237,33984
9238,33984
9239,34240
9240,34560
9241,34688
9242,34752
9243,34752
9244,34752
9245,34880
9246,34944
9247,34944
9248,35008
9249,35008
9250,34944
9251,34688
9252,34624
9253,34688
9254,34688
9255,34688
9256,34816
9257,35008
9258,34944
9259,34752
9260,34560
9261,34368
9262,34048
9263,33792
9264,33536
9265,33408
9266,33280
9267,33152
9268,33088
9269,33152
9270,33088
9271,33024
9272,33024
9273,33088
9274,33216
9275,33280
9276,33280
9277,33280
9278,33280
9279,33216
9280,33216
9281,33344
9282,33216
9283,33024
9284,33088
9285,33152
9286,33152
9287,33280
9288,33472
9289,33600
9290,33664
9291,33728
9292,33856
9293,33920
9294,33984
9295,34176
9296,34304
9297,34304
9298,34368
9299,34304
9300,33984
9301,33792
9302,34048
9303,34304
9304,34240
9305,34048
9306,33920
9307,33984
9308,34112
9309,34304
9310,34560
9311,34688
9312,34816
9313,35072
9314,35136
9315,34816
9316,34304
9317,33920
9318,33664
9319,33344
9320,33152
9321,33216
9322,33344
9323,33280
9324,32960
9325,32576
9326,32576
9327,32640
9328,32832
9329,33024
9330,33088
9331,33152
9332,33344
9333,33600
9334,33792
9335,33792
9336,33664
9337,33152
9338,32640
9339,32512
9340,33088
9341,34304
9342,35776
9343,37696
9344,40384
9345,43456
9346,46016
9347,46784
9348,40064
9349,35072
9350,31040
9351,28736
9352,27968
9353,28480
9354,29696
9355,29824
9356,30592
9357,31680
9358,32192
9359,32576
9360,32960
9361,33280
9362,33280
9363,33472
9364,33536
9365,33408
9366,33344
9367,33536
9368,33856
9369,34176
9370,34112
9371,34048
9372,34112
9373,34432
9374,34368
9375,34112
9376,33856
9377,33728
9378,33664
9379,33984
9380,34496
9381,35072
9382,35072
9383,34816
9384,34944
9385,34944
9386,35392
9387,35264
9388,34880
9389,34688
9390,34688
9391,34752
9392,34688
9393,34624
9394,34560
9395,34496
9396,34560
9397,34752
9398,34880
9399,34880
9400,34752
9401,34496
9402,34304
9403,34048
9404,33728
9405,33472
9406,33600
9407,33728
9408,33472
9409,33088
9410,32960
9411,33088
9412,33344
9413,33344
9414,32960
9415,32896
9416,32768
9417,32768
9418,32960
9419,33280
9420,33600
9421,33600
9422,33536
9423,33536
9424,33792
9425,33984
9426,34048
9427,33984
9428,33856
9429,33920
9430,33856
9431,34048
9432,34176
9433,34112
9434,33984
9435,33856
9436,33792
9437,33792
9438,33792
9439,33728
9440,33856
9441,34048
9442,34368
9443,34752
9444,34880
9445,34944
9446,34880
9447,34880
9448,35072
9449,35200
9450,35200
9451,35136
9452,34880
9453,34816
9454,34304
9455,34048
9456,33920
9457,33728
9458,33408
9459,32896
9460,32768
9461,32704
9462,32896
9463,33216
9464,33344
9465,33280
9466,33152
9467,33152
9468,33344
9469,33536
9470,33856
9471,34112
9472,33984
9473,33728
9474,33344
9475,33280
9476,33024
9477,32896
9478,32704
9479,32896
9480,33600
9481,35136
9482,37248
9483,40064
9484,43264
9485,45824
9486,46720
9487,44800
9488,40576
9489,35776
9490,31680
9491,29248
9492,28416
9493,28864
9494,29888
9495,30848
9496,31360
9497,31680
9498,32128
9499,32576
9500,32896
9501,33024
9502,33152
9503,33280
9504,33344
9505,33536
9506,33728
9507,33600
9508,33472
9509,33472
9510,33664
9511,34048
9512,33984
9513,34432
9514,34432
9515,34368
9516,34368
9517,34368
9518,34496
9519,34624
9520,34560
9521,34880
9522,34944
9523,35008
9524,34880
9525,34816
9526,34816
9527,34880
9528,34944
9529,35008
9530,35136
9531,35008
9532,34752
9533,34624
9534,34688
9535,34624
9536,34688
9537,34688
9538,34688
9539,34560
9540,34432
9541,34368
9542,34368
9543,34368
9544,34176
9545,33920
9546,33728
9547,33664
9548,33536
9549,33152
9550,32832
9551,32768
9552,33024
9553,33280
9554,33088
9555,32896
9556,32896
9557,33024
9558,33216
9559,33280
9560,33344
9561,33536
9562,33728
9563,33728
9564,33792
9565,33792
9566,33984
9567,34112
9568,34112
9569,33984
9570,33920
9571,33792
9572,33600
9573,33536
9574,33600
9575,33728
9576,33984
9577,34048
9578,34176
9579,34112
9580,34048
9581,34048
9582,34112
9583,34240
9584,34432
9585,34624
9586,34688
9587,34880
9588,35008
9589,35008
9590,34880
9591,34752
9592,34560
9593,34560
9594,34624
9595,34560
9596,34240
9597,34176
9598,33984
9599,33600
9600,33216
9601,33088
9602,32896
9603,32704
9604,32832
9605,33152
9606,33408
9607,33472
9608,33280
9609,33280
9610,33344
9611,33344
9612,33280
9613,33344
9614,33536
9615,33600
9616,33472
9617,33280
9618,32960
9619,32640
9620,33152
9621,34304
9622,35840
9623,38080
9624,42176
9625,42304
9626,46784
9627,46784
9628,43840
9629,39040
9630,34240
9631,30464
9632,28608
9633,28288
9634,28992
9635,30016
9636,30912
9637,31808
9638,32640
9639,32896
9640,32832
9641,32640
9642,32704
9643,32896
9644,33280
9645,33536
9646,33600
9647,33536
9648,33664
9649,33728
9650,33728
9651,33792
9652,33856
9653,33984
9654,34048
9655,34176
9656,34240
9657,34496
9658,34752
9659,34752
9660,34752
9661,34688
9662,34688
9663,34688
9664,34752
9665,34816
9666,34880
9667,34944
9668,35072
9669,35328
9670,35328
9671,35264
9672,34880
9673,34624
9674,34624
9675,34752
9676,34880
9677,35008
9678,35072
9679,34944
9680,34752
9681,34304
9682,33984
9683,33728
9684,33600
9685,33536
9686,33856
9687,33984
9688,33664
9689,33216
9690,32896
9691,32704
9692,32704
9693,32768
9694,32832
9695,32896
9696,32896
9697,32896
9698,33088
9699,33472
9700,33600
9701,33408
9702,33216
9703,33216
9704,33472
9705,33600
9706,33664
9707,33728
9708,33664
9709,33728
9710,33856
9711,33920
9712,33920
9713,33856
9714,33984
9715,33920
9716,33984
9717,33856
9718,33856
9719,33920
9720,33920
9721,33728
9722,33600
9723,33664
9724,33920
9725,34176
9726,34496
9727,34688
9728,34752
9729,34688
9730,34688
9731,34624
9732,34432
9733,34432
9734,34624
9735,34752
9736,34624
9737,34304
9738,34112
9739,33792
9740,33472
9741,33216
9742,33088
9743,33088
9744,32960
9745,32896
9746,32832
9747,32960
9748,33152
9749,33280
9750,33216
9751,33152
9752,33152
9753,33344
9754,33728
9755,33792
9756,33536
9757,33216
9758,32960
9759,32896
9760,32704
9761,32576
9762,32768
9763,33664
9764,35520
9765,38016
9766,41024
9767,44480
9768,46400
9769,46848
9770,44416
9771,39872
9772,35200
9773,31360
9774,29056
9775,28480
9776,28864
9777,29568
9778,30400
9779,31104
9780,31424
9781,31808
9782,32192
9783,32448
9784,32768
9785,32896
9786,33024
9787,33152
9788,33408
9789,34048
9790,34048
9791,34048
9792,33792
9793,33664
9794,33920
9795,34304
9796,34432
9797,34368
9798,34368
9799,34368
9800,34304
9801,34304
9802,34304
9803,34304
9804,34432
9805,34368
9806,34496
9807,34560
9808,34816
9809,35072
9810,35136
9811,35008
9812,34880
9813,34752
9814,34880
9815,35200
9816,35136
9817,34816
9818,34688
9819,34688
9820,34752
9821,34880
9822,34752
9823,34560
9824,34432
9825,34304
9826,34048
9827,33728
9828,33472
9829,33344
9830,33280
9831,33024
9832,32768
9833,32512
9834,32576
9835,32512
9836,32768
9837,32832
9838,32832
9839,33024
9840,33152
9841,33280
9842,33472
9843,33664
9844,33728
9845,33536
9846,33216
9847,33152
9848,33344
9849,33728
9850,33856
9851,33728
9852,33728
9853,33856
9854,34048
9855,34112
9856,34112
9857,33920
9858,33728
9859,33728
9860,33920
9861,33984
9862,33792
9863,33600
9864,33536
9865,33728
9866,33856
9867,33984
9868,34048
9869,34240
9870,34560
9871,35008
9872,35200
9873,34880
9874,34496
9875,34304
9876,34304
9877,34432
9878,34688
9879,34752
9880,34816
9881,34624
9882,34304
9883,34048
9884,33856
9885,33856
9886,33856
9887,33536
9888,33152
9889,32832
9890,32704
9891,32768
9892,32960
9893,33216
9894,33152
9895,33088
9896,33024
9897,33152
9898,33152
9899,33344
9900,33536
9901,33664
9902,33600
9903,33408
9904,33152
9905,32896
9906,33152
9907,33856
9908,35136
9909,36992
9910,39424
9911,42304
9912,45056
9913,46528
9914,45824
9915,42304
9916,37568
9917,33088
9918,29824
9919,28224
9920,28032
9921,28800
9922,29888
9923,30976
9924,31616
9925,32128
9926,32576
9927,32896
9928,33152
9929,33472
9930,33600
9931,33600
9932,33408
9933,33280
9934,33472
9935,33856
9936,33984
9937,33984
9938,33984
9939,33920
9940,33920
9941,34048
9942,34176
9943,34368
9944,34560
9945,34560
9946,34368
9947,34368
9948,34496
9949,34496
9950,34496
9951,34560
9952,34816
9953,35136
9954,35456
9955,35456
9956,35136
9957,34944
9958,34880
9959,34816
9960,34880
9961,35072
9962,35072
9963,34752
9964,34560
9965,34560
9966,34624
9967,34688
9968,34624
9969,34368
9970,34176
9971,34112
9972,33920
9973,33472
9974,33152
9975,33024
9976,33088
9977,33152
9978,32960
9979,32768
9980,32832
9981,33088
9982,33280
9983,33216
9984,33216
9985,33152
9986,33088
9987,33088
9988,33152
9989,33344
9990,33600
9991,33792
9992,33664
9993,33408
9994,33280
9995,33344
9996,33536
9997,33920
9998,34368
9999,34432
10000,34112
10001,33792
10002,33792
10003,34112
10004,34176
10005,33920
10006,33920
10007,33920
10008,33920
10009,33856
10010,33664
10011,33600
10012,33728
10013,33856
10014,33792
10015,33920
10016,34304
10017,34688
10018,34752
10019,34624
10020,34688
10021,34944
10022,35136
10023,35008
10024,34624
10025,34304
10026,34176
10027,34432
10028,34624
10029,34304
10030,34048
10031,33984
10032,33920
10033,33600
10034,33088
10035,32768
10036,32704
10037,33024
10038,33408
10039,33664
10040,33664
10041,33472
10042,33216
10043,33088
10044,33408
10045,33792
10046,33792
10047,33536
10048,33344
10049,33216
10050,33216
10051,33216
10052,33024
10053,32960
10054,33536
10055,35136
10056,37120
10057,39552
10058,42368
10059,44992
10060,46336
10061,45248
10062,41600
10063,37120
10064,33024
10065,30016
10066,28480
10067,28416
10068,29504
10069,30848
10070,31552
10071,31744
10072,31936
10073,32320
10074,32704
10075,32960
10076,33088
10077,33216
10078,33344
10079,33472
10080,33600
10081,33664
10082,33728
10083,33792
10084,33856
10085,33984
10086,34112
10087,34240
10088,34368
10089,34432
10090,34432
10091,34496
10092,34624
10093,34752
10094,34816
10095,34944
10096,35200
10097,35456
10098,35648
10099,35456
10100,35264
10101,35264
10102,35328
10103,35008
10104,34688
10105,34688
10106,34816
10107,34880
10108,34880
10109,34880
10110,34880
10111,34752
10112,34752
10113,34816
10114,34752
10115,34560
10116,34432
10117,34368
10118,34432
10119,34368
10120,33856
10121,33216
10122,32768
10123,32640
10124,32576
10125,32512
10126,32512
10127,32576
10128,32768
10129,32896
10130,33088
10131,33024
10132,32960
10133,33280
10134,33728
10135,33728
10136,33472
10137,33344
10138,33088
10139,32896
10140,33088
10141,33408
10142,33536
10143,33536
10144,33664
10145,33856
10146,33984
10147,33984
10148,33792
10149,33728
10150,33664
10151,33728
10152,33728
10153,33792
10154,33984
10155,34176
10156,34240
10157,34112
10158,33984
10159,33920
10160,33856
10161,33792
10162,33984
10163,34304
10164,34496
10165,34496
10166,34368
10167,34176
10168,34240
10169,34368
10170,34432
10171,34496
10172,34624
10173,34688
10174,34432
10175,34368
10176,34624
10177,34624
10178,34048
10179,33344
10180,32896
10181,32768
10182,32832
10183,32832
10184,32704
10185,32640
10186,32640
10187,32896
10188,33088
10189,33216
10190,33408
10191,33472
10192,33600
10193,33728
10194,33920
10195,33920
10196,33728
10197,33152
10198,32576
10199,32576
10200,33280
10201,34688
10202,36800
10203,39232
10204,42304
10205,45248
10206,46976
10207,46144
10208,42112
10209,36928
10210,32512
10211,29952
10212,28800
10213,28480
10214,28864
10215,29760
10216,30720
10217,31552
10218,32192
10219,32832
10220,33216
10221,33280
10222,33280
10223,33216
10224,33216
10225,33280
10226,33408
10227,33408
10228,33344
10229,33280
10230,33344
10231,33536
10232,33728
10233,33856
10234,33920
10235,33920
10236,34112
10237,34432
10238,34496
10239,34432
10240,34560
10241,34752
10242,34880
10243,35008
10244,34880
10245,34752
10246,34752
10247,34816
10248,34752
10249,34816
10250,34816
10251,34944
10252,35200
10253,35392
10254,35136
10255,35008
10256,35008
10257,34880
10258,34624
10259,34560
10260,34432
10261,34368
10262,34368
10263,34240
10264,34048
10265,33920
10266,33664
10267,33088
10268,32704
10269,32576
10270,32448
10271,32320
10272,32256
10273,32320
10274,32576
10275,32960
10276,32960
10277,32832
10278,32704
10279,32896
10280,33280
10281,33408
10282,33472
10283,33600
10284,33600
10285,33792
10286,34048
10287,33600
10288,33152
10289,33152
10290,33344
10291,33536
10292,33664
10293,33664
10294,33536
10295,33472
10296,33600
10297,33728
10298,33664
10299,33792
10300,33856
10301,33792
10302,33728
10303,33728
10304,33792
10305,34112
10306,34496
10307,34752
10308,35008
10309,35072
10310,34624
10311,34240
10312,34304
10313,34496
10314,34304
10315,34112
10316,34112
10317,34112
10318,34048
10319,34048
10320,33984
10321,33856
10322,33600
10323,33344
10324,33216
10325,32960
10326,32832
10327,33024
10328,33280
10329,33216
10330,33152
10331,33344
10332,33408
10333,33536
10334,33600
10335,33472
10336,33344
10337,33280
10338,33216
10339,33152
10340,32960
10341,32704
10342,32512
10343,32832
10344,33856
10345,35904
10346,38528
10347,41728
10348,44800
10349,46656
10350,46528
10351,43648
10352,39104
10353,34368
10354,30656
10355,28608
10356,28096
10357,28544
10358,29504
10359,30464
10360,31360
10361,31936
10362,32320
10363,32640
10364,33024
10365,33344
10366,33536
10367,33472
10368,33472
10369,33600
10370,33472
10371,33280
10372,33216
10373,33344
10374,33536
10375,33728
10376,33856
10377,34112
10378,34176
10379,34240
10380,34496
10381,34752
10382,34752
10383,34752
10384,34752
10385,34624
10386,34432
10387,34368
10388,34432
10389,34688
10390,35136
10391,35328
10392,35200
10393,34944
10394,34752
10395,34752
10396,34816
10397,34944
10398,35264
10399,35520
10400,35328
10401,35008
10402,34688
10403,34368
10404,34048
10405,33920
10406,33792
10407,33856
10408,33792
10409,33472
10410,33216
10411,33088
10412,33024
10413,32896
10414,32832
10415,32832
10416,32832
10417,32896
10418,33152
10419,33280
10420,33152
10421,32960
10422,32896
10423,32960
10424,33472
10425,33984
10426,33856
10427,33408
10428,33216
10429,33344
10430,33472
10431,33536
10432,33600
10433,33792
10434,33856
10435,33984
10436,34048
10437,34048
10438,33984
10439,33984
10440,34048
10441,34048
10442,34176
10443,34240
10444,34368
10445,34304
10446,33984
10447,33664
10448,33408
10449,33344
10450,33536
10451,33920
10452,34304
10453,34624
10454,34944
10455,34880
10456,34624
10457,34560
10458,34816
10459,35136
10460,35136
10461,34880
10462,34688
10463,34560
10464,34496
10465,34304
10466,33792
10467,33408
10468,33088
10469,32960
10470,32896
10471,32960
10472,33280
10473,33664
10474,33792
10475,33472
10476,33152
10477,32896
10478,32896
10479,33216
10480,33600
10481,33728
10482,33600
10483,33344
10484,33216
10485,33152
10486,33152
10487,33216
10488,33280
10489,33664
10490,35072
10491,37056
10492,39424
10493,42240
10494,44864
10495,46272
10496,45376
10497,41856
10498,37120
10499,32896
10500,29952
10501,28480
10502,28416
10503,29056
10504,30016
10505,31040
10506,31936
10507,32448
10508,32768
10509,32960
10510,33152
10511,33216
10512,33152
10513,33216
10514,33600
10515,33920
10516,33856
10517,33728
10518,33856
10519,33984
10520,33984
10521,33856
10522,33728
10523,33728
10524,33984
10525,34304
10526,34560
10527,34496
10528,34368
10529,34688
10530,35136
10531,35200
10532,34880
10533,34624
10534,34624
10535,34880
10536,35072
10537,35072
10538,34944
10539,34944
10540,34880
10541,34944
10542,35136
10543,35200
10544,35264
10545,35392
10546,35456
10547,35328
10548,35136
10549,34880
10550,34560
10551,34112
10552,33728
10553,33600
10554,33664
10555,33472
10556,33216
10557,33088
10558,33024
10559,33088
10560,33024
10561,32960
10562,32768
10563,32704
10564,32832
10565,33024
10566,33024
10567,33088
10568,33152
10569,33344
10570,33536
10571,33600
10572,33600
10573,33664
10574,33856
10575,34048
10576,33984
10577,33792
10578,33728
10579,33728
10580,33792
10581,33600
10582,33536
10583,33664
10584,33728
10585,33856
10586,33856
10587,33728
10588,33792
10589,33984
10590,34048
10591,33984
10592,33792
10593,33600
10594,33536
10595,33664
10596,33984
10597,34496
10598,34816
10599,35072
10600,35072
10601,34752
10602,34624
10603,34880
10604,34944
10605,34688
10606,34368
10607,34176
10608,34176
10609,34240
10610,34176
10611,34112
10612,34176
10613,34176
10614,33472
10615,32768
10616,32512
10617,32640
10618,32832
10619,33088
10620,33344
10621,33536
10622,33472
10623,33408
10624,33408
10625,33536
10626,33600
10627,33472
10628,33472
10629,33664
10630,33600
10631,33344
10632,33024
10633,32704
10634,32768
10635,33664
10636,35264
10637,37504
10638,40128
10639,43200
10640,45824
10641,46912
10642,45376
10643,41216
10644,36288
10645,32064
10646,29440
10647,28352
10648,28480
10649,29184
10650,30208
10651,31296
10652,32000
10653,32512
10654,32832
10655,33280
10656,33536
10657,33536
10658,33408
10659,33472
10660,33664
10661,33728
10662,33664
10663,33664
10664,33856
10665,34112
10666,34176
10667,33984
10668,33920
10669,33856
10670,34048
10671,34368
10672,34688
10673,34880
10674,34816
10675,34752
10676,34688
10677,34624
10678,34688
10679,34944
10680,35136
10681,35200
10682,35136
10683,35008
10684,34816
10685,34752
10686,34944
10687,35200
10688,35264
10689,35136
10690,35136
10691,35328
10692,35200
10693,34944
10694,34816
10695,34880
10696,34944
10697,34496
10698,33920
10699,33344
10700,33088
10701,33088
10702,33024
10703,32896
10704,32704
10705,32704
10706,32832
10707,33088
10708,33152
10709,33024
10710,32960
10711,32832
10712,32896
10713,33024
10714,33088
10715,33216
10716,33472
10717,33536
10718,33408
10719,33344
10720,33408
10721,33472
10722,33536
10723,33728
10724,33984
10725,33920
10726,33984
10727,34240
10728,34368
10729,34240
10730,33920
10731,33600
10732,33472
10733,33472
10734,33536
10735,33600
10736,33792
10737,33920
10738,33728
10739,33536
10740,33728
10741,34240
10742,34880
10743,35200
10744,34880
10745,34368
10746,34240
10747,34368
10748,34560
10749,34560
10750,34624
10751,34752
10752,34816
10753,34816
10754,34560
10755,34112
10756,33664
10757,33472
10758,33472
10759,33600
10760,33216
10761,32640
10762,32320
10763,32384
10764,32704
10765,32960
10766,33024
10767,33088
10768,33280
10769,33472
10770,33600
10771,33664
10772,33856
10773,34048
10774,33984
10775,33408
10776,32896
10777,32704
10778,32896
10779,33856
10780,35520
10781,37888
10782,40896
10783,44032
10784,46336
10785,46784
10786,44352
10787,39744
10788,34624
10789,30656
10790,28608
10791,28224
10792,28992
10793,30016
10794,30720
10795,31232
10796,31936
10797,32512
10798,32640
10799,32512
10800,32640
10801,32960
10802,33152
10803,33344
10804,33472
10805,33472
10806,33472
10807,33536
10808,33600
10809,33664
10810,33792
10811,33984
10812,34176
10813,34112
10814,34112
10815,34304
10816,34816
10817,35200
10818,34944
10819,34560
10820,34368
10821,34496
10822,34688
10823,34752
10824,34944
10825,35392
10826,35520
10827,35072
10828,34560
10829,34432
10830,34496
10831,34624
10832,34816
10833,34944
10834,35008
10835,34880
10836,34816
10837,34752
10838,34688
10839,34688
10840,34496
10841,34176
10842,33984
10843,33920
10844,33792
10845,33408
10846,32960
10847,32640
10848,32576
10849,32704
10850,32896
10851,32832
10852,32832
10853,32960
10854,32960
10855,32960
10856,32832
10857,32832
10858,33152
10859,33472
10860,33536
10861,33408
10862,33344
10863,33344
10864,33152
10865,33152
10866,33344
10867,33728
10868,33728
10869,33600
10870,33600
10871,33792
10872,33984
10873,34048
10874,33984
10875,33920
10876,33856
10877,33792
10878,33856
10879,33920
10880,33920
10881,34112
10882,34240
10883,34240
10884,34304
10885,34496
10886,34752
10887,34880
10888,34816
10889,34752
10890,34752
10891,34944
10892,35008
10893,34752
10894,34240
10895,33856
10896,33728
10897,33600
10898,33472
10899,33280
10900,33088
10901,33088
10902,33088
10903,33088
10904,32960
10905,32896
10906,32960
10907,33280
10908,33792
10909,33920
10910,33792
10911,33728
10912,33600
10913,33216
10914,32832
10915,32640
10916,32576
10917,32512
10918,32512
10919,32960
10920,33664
10921,34880
10922,36992
10923,39680
10924,43072
